120.875
129.625
130.5
126.875
130
123.375
123.875
130.625
132.875
123.875
117
126.625
129.25
133.25
130.75
123.75
124.25
123
129.125
128.75
128.25
123.625
125.625
126.875
132.75
128.875
129.5
125.75
118.375
126
137.875
130.875
128.75
125.625
122
127.625
127.125
127.375
126.5
125.75
128.25
135.125
127.5
126
123.875
128.25
128
124.125
124.75
126
135.375
137.75
127.125
124
120
125.625
128.5
127
126.25
127.5
129
127.5
126
132.75
125
127
125.625
123.375
129.375
132.5
125.75
125
132
129.625
124.375
126.125
124.75
125.625
129
129.25
131.25
136.75
124.75
121.375
126.625
128.875
133.125
125.125
126.375
125.5
125
127.25
128.375
127.125
127.375
129.875
130.25
124.625
126.25
125.75
126.125
124.625
126.625
130.25
126.875
128.75
127.75
123.625
126
124.125
126.75
129.625
125.25
128.125
127.5
125.75
125.375
126.375
134.125
128.5
129.25
124.25
124.875
126.5
128.875
132.375
129.375
127.375
124.125
123.25
127.75
134.25
127.125
124.875
125.875
116.625
141
130.375
122.25
128.625
112.875
124.875
126.875
137.375
122.625
126.875
132.625
127.625
138.875
113
131.5
127.5
129.375
132.125
124.25
134
117.75
125.875
138
127
134.25
127.875
117.5
129.875
123.125
130.625
128.75
118
135.75
134.125
128
129.875
117.625
123.125
130.375
119.25
128.375
130.875
128
129.875
123.875
131.875
128.75
122.75
124.25
123
124.5
119.625
132.25
131.75
130.875
127.75
133
106
123.75
125.375
131.5
141.875
128.125
134.875
117.625
139.25
132.625
112
130.625
124
130.375
163.75
115
118.25
119.875
132.125
124.25
137.25
131.875
120.875
128.25
128.25
110
143.875
151.125
123.125
124
96
160.75
106.625
142.5
121.125
108.625
138.125
98
139.75
130.5
121.375
118.875
136.875
86
178.5
138.25
140.5
96.625
106.5
122
127.25
143.5
149.25
130.25
124.875
114.5
86.75
156
120.25
141.875
97.625
88
122.75
136.625
137.75
155.25
118.25
130.875
138.625
170.875
87
117
144.75
162
86.125
154.125
94.5
87.75
148.375
127.5
127.625
144.625
78.75
151.875
145.25
138.75
133.125
151.125
44
144.75
139.125
134.125
137.5
104.125
181.375
115.375
124
104.25
102.375
156.5
122.25
119.125
145.625
158.875
128.375
152.125
93.125
128.5
199.625
91.375
135.25
125.75
105.125
181.5
149.625
114.25
106.625
70
159.375
123.875
107.625
110.625
91.375
123.875
189.125
95.25
117.5
113.75
123.375
171
106.25
99.375
119.375
50
205.5
56
157.875
100.5
86.625
104.125
105.375
209.375
115.375
150.5
134.125
155.875
137.125
79
140.25
118
133.75
209.5
73.125
138.5
131.875
138.5
143.25
102.875
158.625
83.5
134.75
114.125
106.5
90.875
97.875
167.375
124.125
161.25
127.125
92.75
158.125
108.25
128.625
112.25
115.625
126.125
126.75
117.25
100.625
132.875
139.25
121.125
151.25
132.75
118
134.625
87.75
134.625
144.875
129.25
122.25
104.75
139.5
129.875
110.5
145.875
126.25
125.125
127.375
128.375
125.125
135.25
129.5
127.125
124.375
112
137.5
128.625
125.625
124.625
133.5
127.75
137.125
118.875
118.25
119.375
134
140.125
125.25
129.25
122.75
123.625
143.75
129.5
119.375
129.875
123.75
134.25
122
126.25
126.625
128.25
126.875
119.625
128.5
128.125
133.75
129.75
122.375
122.875
129.5
128.375
130.125
126.125
123.375
127
126
137.5
119
131.125
121.625
128.375
129
133.25
124.5
121
127.75
135.375
123.25
127.5
128.5
124.625
123.875
127.5
126.75
132.75
135.25
117.25
126
122.5
120
134.875
135
127.875
132.25
124.5
129.25
114
132
126.5
136.625
116.375
124.375
135.875
126.25
140.375
128.75
125.375
123.875
120.625
122.5
135.375
125.25
124.75
132
131
114
135.25
135
138.375
96.75
124.625
131.5
133.125
123.75
139.625
121
145.625
126.75
131.125
100
99
99.375
145
106.375
129.375
139.25
133.5
144.625
129.875
126.5
140.125
117.125
101
138.625
137.75
185.75
81
107.5
128
137.25
169.25
133.25
98.375
100.375
122.375
161.25
128.5
138.375
117.5
160.375
119.5
93.875
158.75
114.5
194
121.625
114.125
161.625
107.75
178.875
115.75
145.875
57
154.25
112.875
175.125
101.5
72.125
159.5
149.25
113.125
109.25
132.5
80
138.5
108
81.875
164.125
120.375
184.5
101.75
54
101.75
179.125
162.375
89.125
113.625
78.5
170.875
105.25
194.625
122.125
150.5
116.25
175.25
81.375
80.125
179.125
119.75
145
98.75
77
138.5
129.75
168.5
107.5
130.5
113.375
129.5
96.875
101.875
179
92.375
130.375
97.25
124.875
140.375
149.125
87.75
106.25
146.375
111.75
162.125
111.375
89.875
96.75
132.25
121.875
103
165.875
121.875
116
146.5
101.625
149.125
56
128
132.25
117.25
133
159.125
109.25
153.25
139
119.375
144.125
106.75
116.5
132.25
158
98.625
120.25
134.75
138
124.125
126
111.125
140.75
132.375
137.625
124.125
129.625
118.5
136.125
129
130.125
128.25
128.25
124.25
120.125
122.5
146
119.875
132.625
135.125
125.5
117.875
121.5
124.125
135.25
127
119.5
132.875
123
137.125
129.25
126.625
130
129.625
131.625
113.5
124.75
120.875
126.25
137.875
126.75
128.75
131.625
122.5
120.625
126.5
131.625
131.875
136.125
119.625
118.875
123.875
128.125
136.75
131.625
123.125
117
128.25
127.25
131.75
129.25
122.875
125.75
123.875
125.625
137.125
135.5
125
130
120.375
124.25
125.125
122.25
133.25
135
129.5
130.5
119
121
130
125.875
121.5
137.625
127.75
134.625
124.625
121.25
124.125
126.125
131.75
118
131.75
139.875
127.5
126.5
121
122.625
127.625
130.75
128.75
128.375
130
124.125
129.375
119.875
126.125
126.125
138.25
132.25
125.125
128.375
120
126.875
129.25
129.5
133
126
137
132.375
124.5
122
124.875
123
121.5
142.375
116.5
133.25
107.875
133.375
141
135.125
114
131
125.25
121.375
129
108.125
114.375
127.875
114.125
156
123.5
125.25
124.625
142.625
113.125
113.5
171.375
97.875
151.375
116.125
139.625
139.625
127.75
115
151.875
90.625
96
110.375
150.375
148.5
117.875
121.625
91.875
91.875
175.625
174.75
76.375
143.625
93.125
158.5
120.5
115.5
138.125
144.875
111.875
141.5
117.625
104.625
193.875
95.5
110.5
94.75
147.125
223.625
99.875
75.5
130.5
147.75
104.875
133
138
65.125
164.5
120.5
157.125
68.75
154.5
121.375
120.625
123
117.5
161.375
166.5
89.125
98.5
101.875
166.75
118.875
116.75
146.875
82.5
168.875
158.625
87.25
150.625
86
132.75
94
89.875
124.25
162.625
121.25
124.375
72.75
48
160.125
98.5
165.25
159
111.875
105.25
112.625
151.25
89.75
175.5
123.5
91.625
144.375
78.5
158.625
152.25
131.75
67.125
216.125
101.75
139.375
106.25
112.375
164.5
138.375
121.625
138
85.25
192.375
160.25
113.875
130.625
77
78.625
87.25
112.5
148.875
175.25
141.125
87.5
103.75
106.75
150.75
158.75
102.5
69.25
89.25
118.5
90.75
185.375
110.375
121.625
126.125
104.75
134.625
157.875
146.375
142.875
108
106.5
129.25
154.5
113.125
125.875
136.625
109.625
128.125
140.875
144.625
139.875
115.25
119.5
129.375
119.25
136.375
130.75
125.5
128.625
124.875
123.125
116.875
125.75
134.625
131.125
136
122.25
127.75
128.625
129.875
128.625
131
127.125
131.875
120.875
127.75
126.625
126.625
128
122
126.625
126.375
128.375
134.5
130.5
120
121.625
123.375
127.875
122.875
122
138.125
136.125
126.5
128.375
121
123.875
128.75
129.375
125.875
122
126.25
132.125
134
126.625
125.625
130.75
124.625
129.375
126.125
126.625
121.75
129.25
135.125
129
127.75
122
127.625
128.25
127.75
120
131.5
131
126.875
128.875
125.375
122
127.125
131
127.375
126.875
127.25
130.25
127.625
126.5
121.375
128.75
134.125
129.75
120
118.625
132.75
135.875
132.125
125.75
120
125.75
132.75
129.75
124.875
115.5
130
133.5
124.875
125.5
131.125
119.625
133.875
128.875
113.625
137.375
114
134.75
134.75
125.5
123.375
126.125
133.5
118.25
138.75
137
133.375
120.75
124.25
106.875
141
105.75
146
126.75
128.125
130.375
128.625
139.625
123.5
123.125
107
140.375
78
170.5
148.625
147
153.125
91.625
90
118.375
131.375
159.125
142.75
120
105.875
125.75
143.625
113.75
169.5
102.875
151.625
95.25
76
137.25
149.75
109
139.125
116.75
123.75
121
134.625
110.125
123
155.75
127
129.5
77.875
118.375
169.375
144.375
74.5
154.875
127
118.125
109.75
109
103.75
129.375
153
166.75
97.25
134.5
127.125
160.125
96.75
77.25
165.625
149.5
150
131
86.625
76.25
133.625
162.125
148.25
101.875
117.375
152.375
138
82.875
187.75
127.75
123.5
118
109.25
118.5
99.25
103.75
174.625
122.875
82.25
168.375
90.625
119.375
135.375
137.5
103.625
102.5
151.875
128.5
69.625
129.75
152.75
126.75
101.625
122.375
137.375
156.375
79.25
157.5
159.875
90.875
129.125
101.25
125
80.5
129.25
124.875
48
130
153.875
64.25
166
208.375
93.875
176.125
62.875
116.875
154.625
161.25
139.375
117.875
211.625
47.375
138.375
86.375
93
119
100.5
135.25
78.125
129.5
107.375
108.875
201
106.625
149.75
115.375
104.125
158.125
171
131.125
85.625
72.25
120.5
123.125
135.875
120.25
170.625
124.375
102.625
112.125
104.25
132.625
145.25
127
114.875
148.5
129.375
137.125
105.375
116.875
118
159.75
141.25
90
125.75
139.125
128.875
122.125
142
128.5
113.125
136
119
131.25
133
122.125
122.875
130.375
127.5
131.25
120
127
123.875
131.25
124.75
123.25
128.25
133.25
122.625
127
117
127.25
132.625
130.125
127.75
125.75
131.75
128.75
117
129
128.75
131
130.75
124.25
124
123.125
142.125
125.625
130.625
125.75
118.5
125.625
126.75
132.5
134.625
130.125
118
118.125
121.5
131.5
131
132.25
124
117
132.25
131.5
133
130
123.875
122
127.5
139.75
133.75
126.625
123.75
123.5
124.25
127.75
125.25
125.75
126
131.125
133.875
123
128.375
126.375
122
126.25
133.75
125.125
134.75
123.25
127.125
130.5
112
137.25
128
130.625
126.625
123.375
125.125
129.625
125.125
126.875
131.5
128
125.75
129.125
124
125.125
129.875
127.75
126.875
133.625
127.375
125
123.625
122.75
132.125
128.75
129.375
128
123.625
129.125
133
128.375
128.5
122.125
127.25
125.75
128.5
128.125
125.375
117.875
141.125
126.375
122
130
130.5
125.75
122.625
129.625
120
135.875
121.5
111
144.75
138.875
127
125.875
123.125
126.125
122.875
123.875
134.125
131.5
112.5
133.25
133.5
118.5
147.125
94.5
150.75
133.125
121.25
128.375
142
115.25
162.125
128
99.125
129.5
128.125
168.375
75.75
107.625
154
133.125
150.875
123.25
60
143.875
147.5
99.125
145.375
117.75
97.875
77.875
100.75
143
130.25
178.75
118.5
72
179.125
155.625
140.125
120.375
114.25
112.125
179.625
110.625
83.875
130.75
157.875
121.25
95.875
187.375
107.375
132
117.5
148.375
83
175.125
110.75
120.875
134.5
89.875
195.75
77.5
128.625
128
139.375
179.125
74
141.75
148.125
73.625
161.25
102.25
95.875
140.375
173.625
86.625
103
183.375
72.5
187.5
113.25
125.125
170.625
98
142.375
117.75
114.75
151
99.125
156.5
83.875
151
182.125
104.125
115.625
158.5
78
134.375
141
130.625
116.5
85.375
141.75
143.5
134.375
91.875
90.625
102
132.75
170.625
97.5
68.125
154.25
129.625
80
93.75
88.5
204.5
90.5
122.125
113
86.25
162.125
181.625
81.5
105.75
185.5
119.75
182.125
131.75
146.125
150
124.75
64
154.5
145.875
114.875
112.625
115.75
132
82.625
151.25
114.25
106.125
145.25
123
137
120.25
134.25
111.125
134.75
115.5
135.75
119.125
128.875
118
137.375
127.375
122.125
128.875
140
103.875
121.875
132.5
132.375
134.625
122.125
123.875
130.625
119
134.875
131.5
130
122.5
121.75
133.25
124.125
131.625
125
124.125
123.875
126.75
132.75
123.25
130
124.375
123.375
126.375
124.125
125.375
125.625
122.375
130
132.125
127
128
123.375
128.625
127.875
120.625
131.625
133.75
125.75
124.125
122.625
128.5
127.375
129.375
125.875
125
128.75
129.875
131.5
128.75
123.625
125.75
124.875
125.125
130
130.625
127.5
127
129
127.25
124
128.125
129.25
129
127.625
124.875
128.5
130.5
127.625
124
125.5
125.75
126.25
132.625
129.25
129.25
125
125.125
126.375
126
127.375
124.25
121.125
132.75
135.625
131.75
125.5
118
121
127.25
126.25
129.625
129.875
127.375
126
125.25
132.875
133.75
130
126.875
121.25
123
132
128.875
124.125
126.125
129.5
124.875
131.5
136
125
129.125
128
118.875
125.75
131.125
126.875
137.25
110.625
134.375
128.75
124
134.125
116.625
126.375
126.5
142
131.625
131.125
125.375
126
127.75
133.75
103
133.5
121.625
128
153.25
114.25
117
126.125
129.625
125
136.5
123.625
158.625
113.875
132.875
114.625
92
147.5
136.625
134.25
127.375
128.75
126.75
130
137.625
85.875
164.125
120.875
126
135.5
116.875
121.75
128.75
133.25
99.625
157
84
151.625
111
92.125
149.875
132
123.25
102.375
121.25
157.125
119.25
138.875
113.125
78.75
163.75
94.125
127.25
143.5
148.25
166.375
116.625
114.375
152.5
134.5
165.125
88.75
184.75
62
79.75
121.125
158
178.75
66
156.375
101.625
180.25
139.625
114.125
78.25
118.5
190.5
99.625
56
146.625
152.5
174.375
115.125
70.625
185.625
166.125
95.125
168.5
100.75
72.75
183
125.875
73
186.5
103.25
139.625
139.25
142.875
106.625
51.875
147.75
100.875
180.375
118.625
103.375
134.75
88.125
148
151.875
107.5
110.125
154.625
125.875
144.875
82.875
128.125
150
149
125.375
95
109.375
121.125
101.625
175.25
109.25
82.5
202
54
140.375
135.875
124.5
87.125
121.75
173
157.625
81.75
95.5
118.25
107
168
72.5
126.75
151
139.625
133.375
80.375
92.125
146.125
156.375
94.875
152.125
139.875
105.125
105.375
121.25
166.375
170
116.5
121.625
99.75
113.25
157.75
132.125
110
127.125
130.375
119.75
139.375
130
129.5
121.625
129.625
125.625
129
110.625
137.25
133.375
124.875
131.875
117
130
127.375
124.875
135.125
124.5
127.5
128.875
126.125
125.125
124.625
131.5
124.25
119
128.625
126.5
138.875
119
122.75
120.75
124.125
127
136.625
130.875
129.375
123.5
127.5
119
138
122.875
113.125
142.875
126.625
135.625
139.75
109.5
136.375
118.625
123.125
133.875
122.625
130.5
133.5
121.25
119
123.75
129.125
140.875
125
133.375
115
117
132.625
146.875
129
133.875
118.5
125.75
126.5
118.875
122.125
141.625
120.5
135.625
127.125
113.625
127.5
135.5
121
127.75
130.25
127.625
131.25
126
124.375
141.375
96
128.375
136.125
128.625
131.5
125.125
133.125
121.75
139.875
123
125.25
124
127.25
136
110.75
123
130.375
134.375
133.5
123.875
132.5
110
135
127.5
127.375
136.375
140.625
120.5
114
127.875
130.125
140.875
129.5
125.125
123.375
122.625
122.75
131.5
127.25
129.625
129.75
138.75
108
109
139.5
111.25
143.75
133
134.375
116
132.75
118.75
137
112.75
120.5
132.625
126.5
142.5
120
125.125
130.5
144.25
103.375
141.75
125.875
132.125
148.5
136.5
143.625
118.125
135.25
106
133.875
106.875
138.75
136.875
117.625
119.25
124.125
135.875
124.25
93
144.625
122.375
144
132.125
130.25
105
136.5
152.375
113.375
141.375
113.25
127.75
132.375
116.375
141.125
132.875
169.375
86.75
142.25
113
119.25
169.625
88.375
143.625
95.5
122.5
168.75
131.375
95.625
141.5
109.75
135.25
130.875
72
159.5
166.5
139.625
84.875
117.75
149.625
143.125
164.875
54.875
111.125
139.25
192.375
112.25
76.125
149.5
135.5
124.625
134.125
102
108.625
183.25
109.875
64.125
155.625
116.75
135.875
141.125
115.875
140.875
93
159.25
108
107.875
89.125
134.5
119.125
135.125
167.375
94.75
196.5
90
130.125
157.25
129.375
130.625
84.375
87
80.625
185
154.375
88
79.875
104.375
119.875
149
136
114
121.5
119
153.875
118.25
123.375
123.625
126
110
220.125
72.875
140.375
121.5
183.875
117.75
109.375
193.125
93.375
148.875
72.5
91
121.875
208.75
138.25
128.875
113.75
101.375
172.375
130.875
100.75
102.75
157.875
174
65.625
82.875
145
149.5
130.875
118
125.625
116.125
138.125
147
120
109.125
127.5
119.75
131.25
103.5
144.375
145.25
120.375
114.125
121
137.875
125.625
110.75
125.875
132.5
130.75
126.75
129.5
135.125
108
133.75
129
137.125
118
121.25
139.75
132.25
124.75
114
126.5
131.875
126.625
125.875
129.75
128.5
122.5
129.625
129.375
126.75
141.625
120
123.25
123.5
124.625
139.875
127.5
125.375
123.125
125.375
126.125
132.375
133.625
120.25
125.75
127.375
125.375
128.625
123
127.375
131
136
123
128.125
124.125
121.125
129.875
122.875
121.125
127.875
125.625
158.75
112.5
129.875
124
120.625
133.25
123
127.125
118.25
129.5
144
141.75
123.75
102
124
127.375
131.625
133.875
130.625
132.75
123
127.75
123.625
124
123
133.125
126.125
129
139.375
130.875
118
124.625
121
132.75
128.125
122.125
132.875
130.625
126.375
131.375
126.125
124.5
124
125.375
131
124
124.25
138.375
127.5
130.25
116.5
123.625
133.125
125.875
127.75
120.875
132.25
127.25
135.25
132.625
116.375
119.375
128.75
126.125
122.5
131.75
135.375
127.5
123.625
125.375
129.25
130.875
134.125
125.75
122.25
123.875
119.5
133.5
126
139.75
125.25
108
139
122.375
126.5
132.625
122
135.75
129.875
113.25
130.25
106
139.125
136.375
133.25
107.375
135.75
128.25
123.625
131
134.75
146.375
108
128.5
119
133
122.875
135.75
117.875
132.375
119.25
131.625
140.625
118.625
122
143.75
124.875
172.25
136.875
99.75
89
99.25
165.25
125.125
143.125
127
130.5
121.5
101
158
131.75
156.875
141.125
117.625
120.375
110
174.875
101.625
154.875
118.125
156.25
90.625
115.375
153.5
141.25
145
115.375
187.5
58
136.625
130
170.5
145.625
69
123.875
156
45
153.875
150.25
78.375
180.375
129.25
184.625
47
154.25
128.875
73.75
146.375
132.75
141.125
126.25
111.875
184
77
132.75
83.5
132
193.375
91.75
142.625
95.375
74.625
150.875
140.125
128
120.875
113.25
125.875
107.125
194.25
154.875
95.875
88.375
163.25
103.75
183.25
91.75
107
96.75
129.75
196.5
96.125
114.75
128.625
153.375
121.625
118.625
126.625
74
179.5
73
152.625
129.5
107.125
154.5
137.625
111.125
149.625
97.75
169.875
142.625
134.5
182.5
55
143.625
88.625
81.625
192.75
114.75
127
117.125
82
110.25
137.25
146
113.125
93.25
137.5
147.375
128.125
174
96.5
103.5
111.625
144.875
136.375
150.125
132.125
122.125
120.375
134.25
114.125
121.75
109.625
139.375
124.875
138.875
129.5
122
123.5
124.25
132.125
133.875
134.25
112.25
126.125
124.75
128
133.625
121.75
126.75
127.125
130
120.5
134.25
127.625
131.75
129.25
138
123.25
116.625
125.5
126.75
126.375
128.125
132.75
118.875
126.375
129.75
125.875
121.625
133.875
123.625
126.125
130.625
121
123.375
126.375
138.625
123
133.375
123.75
121
120
126.5
136.875
135.375
129.375
123.75
116.25
125.375
128.875
131.75
129.75
128.125
124.25
124.5
126.75
130.375
130.375
129
126
121.625
129.375
117.625
147.125
132.5
127.625
123.875
117.125
127.125
130.875
127.625
127.25
125.875
123.125
120.125
141.75
142.75
126.75
128.875
115.875
118
133.75
129.625
123.375
126.25
127
131
126.125
126.25
125.125
129.875
126.125
127.875
126.25
132.75
128.875
125.75
127.875
128.125
123.25
124
123
121.5
139.125
134.375
129.625
121
122.625
126
126.375
130.75
126.5
121
122.25
142.875
133.125
124.875
126
124.375
125.25
126
127.875
126.875
123.25
134.5
131.125
132.625
124
120
128.625
127
123.5
128.75
134.625
125
128.75
124.375
125
124
120
137
132.875
128.75
125.125
120
124
122.5
121.125
141
130
126.125
128.125
122.375
124.375
118.375
143.75
123
128.25
128.875
127.375
134.875
120.125
129.375
134.625
120.75
111.25
128.875
107.25
156.5
127.125
155.125
121.75
108
173.125
122.5
74
174.625
95
135.5
98.375
83
133
171
125.625
146.875
112.5
106.75
166.625
157.25
104.25
112.125
209.625
149.625
107.75
115.375
122.125
141.125
135.5
136.5
125
95.375
162.75
143.25
147.5
116.5
122.5
142.125
78.5
139
169
134.625
120.875
63
119.5
148.875
81.25
112.5
128.25
138.875
105.75
186.125
87.875
100.75
146.5
93.875
120
115.875
153.375
112.625
152.75
104.75
122
109.5
160.75
112
107.625
163
96.25
193.875
115.125
84.625
59
162.5
105.375
144.125
134.5
108.375
120.875
118.25
137.75
98.625
149.5
127.125
158.875
134.75
124
101.375
108.5
92.625
154.875
173.125
64
98.25
128.625
127
125.25
115.875
138.125
123.5
180.5
90.875
150.75
133.125
129.625
101.125
99.125
152.75
153
124.625
81
149.625
114
136.75
110.875
91.5
138.25
126.875
129.375
150.125
131.5
108.25
170.25
115.5
126.375
142
131.875
97
125.75
143.625
143.25
107.25
128.375
127.125
144.375
127.125
124.125
123.875
126.375
131.875
144.625
145.125
134
106.125
112.375
131.25
128.125
142
134.5
135.625
125.5
121.375
132.25
128.375
123.375
123.75
125.875
125.625
127.25
122.375
128.5
124.5
123.375
132.125
126
120.125
133.375
131
124
126.125
127.375
125.625
128
124.875
126.5
137.125
131.125
126.5
120
119
131.875
132
130.25
127
120
125.375
126
128
140.375
132.375
127
120.75
120.125
127.625
126.25
126
128.375
132.25
130.625
125
123.75
128.5
127.25
131.5
122
122.375
130.75
132.625
125.875
126
121.125
125.25
134.625
132
128.5
123.5
124.125
123
127.125
133.25
124.75
131.25
129.875
127.5
127.125
120
126.25
121
121.75
137
145.25
129.75
122.375
118.25
121.5
128.75
127.375
129.625
126.5
124
126.875
133.625
135.625
127.125
127.375
122
121
129.375
129.875
125.75
123.625
123.75
130.625
134.875
140.25
128.25
125.75
120
119.25
128.5
127
128.5
125
130.625
127.125
128.75
125
124.75
130.875
130.5
124.375
129.875
125.5
131.875
125
138.25
124.875
127.75
116.875
130.125
133.25
127.5
122.375
120.375
127.875
125.25
127.625
139.75
119.25
114.375
148.5
103
127.5
112.125
144.875
118.875
134.25
114.125
132.25
128.625
122
143.25
109
128.25
129.5
146.375
129.75
126.875
126.5
128.375
123.75
134.375
113.625
150.375
123.875
129.125
123
113.25
118.875
137
144.75
118.125
120.125
122.25
114.875
151.875
113.125
134.25
141
141.875
139.25
115.5
105.125
111
118.125
149.625
157.625
145
166.75
107.25
104.25
72.75
172
125.75
142.5
128.875
83.25
100.875
153.5
181.75
56.125
145.875
75.875
162.375
155.125
100.5
101
161.5
106.875
81
157.5
93.75
222
102.125
125
126
69.875
136
176
104.375
58
142.75
96.375
67.75
183
127.625
115.25
133.5
145.5
158.75
141.375
121.125
156.625
129.875
103.625
117.625
168.625
99.75
130.75
145.5
105.25
155.5
116.75
117.625
121.875
166
104.25
115.125
72.5
83.125
80.5
119.125
93.25
152.75
162.625
157.5
94.125
164.125
76.875
110
188.625
103.875
129.375
89.25
109.75
135.375
147.75
99.125
136.25
179.125
170.125
117.875
133.375
72.375
152
93.75
122.625
70.5
152
124.625
36
127.75
86.625
223.625
120.625
155.625
120.5
120.625
83
94.875
183.125
100.125
153.125
125.375
86.25
118.125
133.5
122.75
156.375
136.375
141.5
103
107.375
120.875
151.25
149.625
121.125
106.125
99.625
152.25
129.125
126.125
139.375
130.625
120.375
132.375
140.75
118.625
118.25
126.75
130.5
131.625
122.625
132.5
128.625
105.25
136.375
130.25
131
129.75
120.125
139.125
137.125
128.5
127.375
129.625
121.625
128.75
128.25
120.625
117.375
121.875
127.375
129.75
126.125
128.875
122.5
137
127.875
137
111.875
113.75
137.875
132.5
123.125
129.875
130.25
126.25
127.75
126.875
134.25
124.125
128
138.375
100
121.625
136.625
128.625
127.875
131
121
133
124.75
124.375
125.625
124.75
141.5
122.75
123.875
126.875
120.75
127.125
128.75
125.625
131.375
132.125
123.5
126.625
143.25
116.375
134.25
126.125
124.625
133.5
133.625
124.875
125.75
128.375
121.25
117
123.5
134.625
138.125
128
129.25
125.375
122
125.875
131
125.25
129.5
128.625
127.625
130.5
125.875
126.125
113.625
136.875
130.625
128.75
129.75
120
123.25
129.125
129.125
128.5
129.875
124.125
125.5
129.375
130.25
138.625
134
113.875
93
125.875
127
134.375
141.375
127.875
133.375
123.25
121.5
127.5
136.25
124.875
124.625
126.625
118.5
134.125
138.25
129.25
132.875
113.5
121.875
119.625
136
140.25
125.25
121.5
125
127
130.25
131.375
117.25
134.25
128.25
133
139.875
118.125
111.125
141.75
111
134.625
141.75
125.5
125.125
113.625
133
126
136.125
134.875
136.5
106.5
120.875
125
128.75
113.375
131.75
126.125
138.625
117.25
119.875
143.125
167.875
136.625
115.375
115.875
79.375
159.875
169.5
140.875
89
123.375
128.625
129.25
153.625
148.75
125.375
104.625
72.625
112
145.75
147.375
153.5
163.25
69
140.625
101.75
159.5
145.5
86.375
126.625
112
134.5
136.75
126.75
140.125
109.25
76.875
181.625
49
139
115.625
133.5
160.375
124.625
92.625
180.75
86.375
118.375
225.375
69.75
78.75
112.125
148.75
146.75
129.25
159.125
65
164.875
131.125
74.375
144.875
120.75
120.125
117.25
127.375
133.625
132.875
105.5
103.125
110.25
153.75
130.5
109.625
124
135.875
145.125
143.25
48.75
159.375
199.875
120.375
139.5
44
225
87.5
117.875
120.125
94.625
144.875
116.5
155
78.5
121.875
85.25
177.5
61
93.125
149.375
112.375
98.375
192.625
112.375
109.5
161.5
166.125
112.875
126.125
89.5
98.25
142.875
141.375
119.25
96
131.25
99.75
196.5
86.75
145.375
144.25
133.125
53.5
159
157.625
107.625
125.875
107.375
146.375
102
139.125
148.5
97.75
93
174.5
147.125
111.5
111.75
141.875
121.875
132.375
147.625
141.375
111.75
107.25
119.75
153
131.5
123
131.625
132.375
128.375
116.75
129.25
122.75
142.5
115
121.5
111.625
124.625
143.875
123.625
128.375
99
131.875
125.625
140.5
126.5
120.875
122.25
131.75
121.125
117
136.25
124.875
140.375
118
121.25
124.5
128.75
126
128.25
125.625
123.5
134.5
127.75
130.375
140.375
117.375
134.75
119.5
121.875
132.875
124.375
130.5
121
129.25
126.5
130
125
132.125
132.75
125.625
119
126
128
129.25
121
126
131.875
131.375
130.625
129
118
133.75
126.5
126.5
119
125.5
132.125
126.375
130.5
123
123.375
130.375
131.125
129.125
127.125
124.625
125.25
132.75
124.125
125.25
128.625
135
123
127.625
123
124.375
131.125
130.625
131.75
123.875
126
125.5
127.25
128
126.25
121
129.375
136.75
131.125
127.5
120.75
121.375
129
127.75
120
130.875
139.375
131
124.375
118.25
121.125
137.125
130.875
122.375
121.875
128.75
134.75
122
114.625
121.75
151.625
119.25
126
115.875
123
134.375
155.5
116
129.125
127.375
128.375
138.75
116.875
136.5
116.375
127.625
131.375
102.75
127.875
154.5
114.375
126.75
107.25
114.25
161.375
82.625
140.625
111.125
165.125
119.625
154.125
94.75
121.75
144.125
120.125
132.125
118.5
153.875
130.125
100
99.5
162.375
152.625
140.875
95
123.25
94.875
183.625
126.125
94.375
113
115.5
116.75
135
139.875
129.375
152.875
73.5
126.25
171.625
109
140.25
153.125
81.375
101
187.5
125.5
88.75
132.5
164.375
106.5
99
173
126.25
130.625
151.75
97
118.5
116
151.25
97.25
184.75
67.375
132.125
133.625
59
116.5
202
131.25
119.125
117.75
85.75
167.625
128.875
163.5
72
113.25
133.125
109.625
60.125
200
145.125
102.5
154.5
119.875
126.25
188.375
96.25
143.625
182.125
89.375
129.125
110.25
85.25
128.375
115.25
138.5
127
47
180.375
155.375
117.25
151.25
81.375
83.25
92
202.5
94.625
65.375
117
92.875
105.875
188.375
102.375
109.375
180.5
103.75
103.125
135.5
70.625
168.125
91
172.5
98.875
155
110.875
89
176.375
114.125
103.375
183.625
70
137.5
123
120.875
193.5
76.875
149.125
125.75
154.125
52
203.125
115.25
142.125
89.375
130.875
84.125
151.25
114.625
135.625
140.25
114
137
133.5
112.625
135
167.625
143
132.25
110.5
125.25
82
110.625
124.375
145.125
108.75
129.125
123
100.25
138.75
142.25
123.125
120.875
131.625
114.5
137.75
137.25
142.375
136.875
131.625
120
128
125.75
136.625
109.75
113.5
136.25
127.5
123.5
109.625
141.125
131.75
126
122.625
113.125
119.5
134.25
137.125
129.125
126.75
124.125
126.375
128
130.125
128.125
125.75
123.125
136.125
127.375
123.625
131.875
125.75
132.25
130.125
119.625
124
127.5
125.75
130.625
137.25
123.625
122.625
126.625
131.25
125
127.625
131.75
124.25
126.875
126.625
122.375
126.25
131.25
128.875
124
130.375
128.5
131.25
125.125
121
123.5
116
136.375
139.125
135.75
127.625
117
119.75
131.375
129.875
121
127.875
118
133.75
141
132.125
124.75
128.625
124.875
119
123.5
125.75
124.25
131.75
134
138.5
128
120.875
124
112.875
127.875
145.375
130.5
131.125
120.25
117
130.125
129.375
127.75
125.25
127.625
123.75
131.375
123.875
140.875
131
127.375
118.625
118
132
131.875
127.5
125.375
129.375
124
127.625
127.375
125.75
126.75
118.625
114.75
162.875
138.125
128.125
116
113.5
123.125
120.625
145.625
120.75
129.375
130.125
128.5
126.75
118
126.375
128.625
129.625
121.375
126.5
139.125
130.75
125.75
140.25
91.125
117.625
109.125
130.375
142
127.625
101.625
118.375
122.875
144.25
140.5
135
157.375
96.125
105.25
178.875
121.75
110
165.75
78.25
125.875
127.25
135.875
164.625
129
117.75
97
105.625
136.5
182.875
98.875
130.875
75.625
155.75
167.875
149.125
141.5
80.375
150.625
105.5
166.875
85
121.125
96.75
144.375
158.75
143.875
128.75
161.625
107.375
141.5
88.875
141.125
108.625
87
155.5
64.25
182.75
127.25
144.875
109.625
130.375
113.5
143.375
94.125
119.25
108
110.5
145.25
169.25
59
144.875
143.875
135.625
165.625
89.75
96.875
122.25
138.25
132.5
111.5
157.125
93.25
175.25
75.75
55.375
189.625
186.625
100.25
149.875
149
66.875
189.5
111.375
123.375
109.875
119.75
115.25
175.75
130.25
97.875
157.375
110.125
121.375
98
170
139.75
180.5
80.625
84.125
168
69
203.625
125
79
115.875
114.25
87
91.5
122.75
154.375
182.75
69
85.25
174.625
61
174.625
178
70
145.5
160.25
144.25
173.375
96
82
107
116.625
127.125
178.25
140.5
102.5
152.25
113.375
137.375
140.75
134
98
123.875
129.25
138.75
125.75
110.375
130.375
131.5
131.625
121.75
120.375
142.5
122
131.375
135.625
119.375
140.625
121.875
102.625
117
129.75
120.5
140.125
124.25
118
124.75
126
124.375
139.25
122.5
130.125
121
122.375
129.75
128.5
125.5
118.125
132.75
151.75
125.125
124.625
117
123.5
131.625
124.875
130.625
126.5
127.625
125.5
128
128.625
124.125
133.125
128.5
120.875
131.875
126.25
127.75
126
135
125.375
126.625
122.25
125
128.75
125.875
126
127.125
128.5
131.75
132.625
122
122.875
131.875
126.125
124.25
130.75
127.25
128.875
124.5
126.5
129
126.25
125.25
129
127.875
126.5
128.125
122
125
130.125
133.875
135
126.5
123
124.625
124.75
123.375
130.625
129.625
130.5
130.625
125.5
125.875
123.125
127.125
131.125
119
124.75
145.875
131.375
127.25
121
120.25
128.125
126.375
124.25
121.375
128.875
138.375
141
126.375
119
121
127.375
121
125.625
137.625
131.875
126.125
125.375
128.625
125.75
126
126.75
126.375
115
128.25
139.625
130.375
131
128.125
116
128
121.875
127.375
131.875
121
138.5
135.75
124.375
122
124.375
127.875
128
129.5
124.625
125.875
130.875
128.375
122.75
130.625
121
125.125
135.25
121.25
129.25
133.875
119.5
130.5
130.5
124.875
129.5
125.875
134.375
122.875
128.5
118
127.375
128.125
139.625
128.875
137.25
131.375
122.875
107.25
114.375
133.5
135.375
130.125
137.875
115.375
129.75
129.875
113.75
135.5
108.125
129.75
170.75
128.75
116.25
125.25
149.75
132.375
110
116.875
111.5
157.75
161.5
115.875
102.625
103.125
132.75
147.875
127.5
117.75
131.5
92
113.125
126.5
128.875
143
116.5
98
161.625
115.25
109.875
157
132.375
122.375
123.875
81.75
107.375
192.25
92.625
116.75
85.25
118.625
170.875
103.375
173.125
101
123.375
185.5
84.5
156.75
111.375
138.875
123.125
146
141
154.375
69
113.625
110.125
143.125
170.5
65
152.625
61
127.5
114.25
168.75
136.375
77
84.625
125.625
186.5
84.125
170.875
167.25
70.875
108.625
156.25
108.875
139.875
147.5
115.75
142.625
86.25
155.75
199.75
138.125
72
154.75
107.125
123.75
134
189.125
118.625
86.5
161
76.625
130.125
81.125
149.75
116.125
103.375
193.375
153.875
95.75
59
199.5
156.5
127
131
123.25
141.125
65
150.375
105.375
128
186.5
120.75
109.375
103.125
151.875
81.75
140.125
104.875
100.125
157.25
31
195.625
173.625
154.5
137.75
89
127.25
110
137
102.375
114.25
181.75
74
110
144
138.375
138.25
117.375
102.625
90.5
120.875
165
134
127.375
123.375
113.875
136.625
110.875
108
116.375
137.125
129
128.25
125.375
134.25
125.25
139.75
101.5
127.5
126.75
126.625
131.125
121.375
137.5
121.75
135.75
115.875
121
116.625
118
135.375
136.75
135.375
124.25
117.875
122.5
133.25
125.875
127.875
127.625
130.625
124.875
128
126.375
127.625
128.375
125
124.125
130
124.875
132.125
128
122.25
133.5
125.625
128.625
129.125
124.125
124
127.125
128.5
123.875
129.75
134.875
132.75
125.75
122.875
123.75
125.75
127.5
127.625
128.5
128.25
121.75
131.375
129.375
131
128.25
124.75
123.375
122.25
128.5
137.875
125.625
123.5
127.625
126.875
126.75
128.125
128.25
124.5
126.25
123
127.375
135
132.25
132.375
124.875
118
124.625
131.5
127.375
122.375
128.75
130.25
130.5
118
124.125
141.625
136.625
129.375
114
122
130.5
123.375
113
131.5
142.875
138.25
124
118
122
128.625
132.375
125.125
126.625
137.625
133.125
126.25
114
123.25
138.625
121.125
128.125
128.125
124.375
129.75
126.5
121.5
135.375
114
129.75
139.625
129
129
126.5
116
119
141.75
134.5
126.75
124.5
121.875
130.125
134.875
133.375
122.875
120.875
118.75
131.625
130.75
127.375
123.75
131.625
124.375
126.625
121.125
132.125
131
119
135.75
124.875
129.625
126
128.125
135.75
129.25
120.125
124.75
124.5
144
120
128.75
133.125
116.625
137.5
116.625
130.875
147.25
141.25
106
92
104
143.375
140.25
134.5
119.375
135.625
140.875
129.375
130
123.625
130.875
119
118.25
122.625
127.875
146
142.875
129.125
123.375
128.25
122.875
95.625
113
133.75
159.25
122.125
137.375
110.875
143.125
139.75
87.5
156.875
131.125
114.75
113
139.5
140.625
161.375
159.875
66.875
110.125
155.25
164
103
87
124.875
114.875
199.75
168.125
60
155.625
64.5
174.625
156.875
122
95.375
188.625
105.75
102.875
177.125
88
165.375
120.5
117.25
99
69.625
177.625
160.5
43.25
138.75
175.375
56
154
148.5
109.375
164.125
124.875
48.875
168.5
101.5
138.25
197.5
97.125
102.5
145
107.875
76.375
157.375
101.375
118.75
181
128
152
86.125
134.875
125.375
152.125
106.875
116.625
96.875
100.375
161.75
131.25
96.75
101.125
143.5
119.75
129
95.75
119.375
131.5
167.875
76.125
129.875
128.25
119
133.25
81.25
154.5
131.625
149.875
90
120.5
187.5
111.875
90.875
100.125
154.625
123.875
118.75
93.25
88
187
195.125
108.25
126.25
90.75
108.375
185.875
135.875
105.625
102.625
112.25
195.375
127.625
130.25
54.5
125.5
134.625
144.625
120.875
104.375
118.75
136.25
154.5
134.75
130.375
153.375
116.125
113.375
125
110.375
146.375
123.5
108.125
160.375
98
124.125
156.5
139.75
112.375
111.125
135.75
130.125
149.5
112.75
137.125
128.125
137.5
86
134.5
146.625
131.125
127
133.25
131
127.125
144
114.375
107.25
124.25
137.5
122.625
129.25
129.875
119.375
128.125
128.75
129.5
128.375
132.125
125.375
112
123.875
141.125
133.125
132.75
129.25
118.75
132.625
122.125
122.75
129.625
132.625
117.375
127.5
138.125
139.375
128.375
122
120.625
126.125
127.375
127.25
125.75
129.5
122
119
143.5
140.625
120.875
129.625
115.375
120
132.5
122.25
124.25
126.25
124.625
135
134.875
129.375
125.875
128.25
122.5
135.875
132.625
126.75
116.875
131.875
129.5
127
121
125.625
134.75
131.375
129.375
123
124
121
133.5
134.125
123
131.75
129.5
121.25
130
122
125.625
119
124.375
124.625
153.375
137.625
124
123
114
123
130
130
125
125.625
121.625
129.875
142.75
127.625
127.875
123.5
119
125
129.625
128.875
125.875
122
128.5
141.875
132
124
124.25
121.375
120
121.5
141.75
139.5
124.875
124.25
120.625
126.125
127.375
126.625
120.125
134.5
135
125.75
135
122.25
120
126.75
124.5
128.375
132.625
128.625
125.75
121
126
131.5
130.125
127.875
117.25
140.5
140.25
129.75
126.375
127.125
123.5
120.625
123.5
128.125
124
139
126.125
115
122.625
129.375
149.75
135.75
128.25
114.625
109.5
123.375
124.375
136.5
136.625
140.375
122.75
120
117.625
118.75
141
132.75
132
127.375
125
119
122
124
130
125
133.625
129.25
128.5
123.75
119.375
124
129
135
118.5
130.125
140.625
120.625
120.375
133.25
118.75
128.75
151.5
135.25
110.375
107.25
118.125
149.75
122.875
129.125
173.375
113.875
140.125
125
112.25
132
113.875
149.875
125.25
95.125
157.375
143
131
96.875
113.125
127.125
102.5
121.125
119.375
101.75
146.875
172.375
95.25
106.125
84.875
192.375
129.875
102
86
151.625
151.375
168
157
78.125
85.125
123.625
157
173.625
78.75
173.625
157.625
99.875
107
131.75
86.5
94.75
137.75
89.625
154.25
83.5
115
143.625
185.75
75.25
155.125
140.25
146.375
126
178.25
86.75
117
62
140.875
114.375
82
151.5
124.625
180.5
56
119.125
135.25
68
150.625
131.75
131.625
134.125
104.625
191
102.25
201
71
145
122.875
145.5
142.5
154.5
131.625
44
131.5
127.75
147.625
191
126.625
56
136.75
104.25
129.25
104.75
95
129.625
127.75
85.25
164.5
130.625
117.25
93.25
152.75
95.75
87
188.5
133.875
110.125
137.625
124.375
101.5
138.875
118.75
191.5
111.875
90.375
119.75
150.5
50
128.75
139.375
129.625
81.125
173.125
103.625
101.5
159.125
115.5
182.75
135
108.875
118.875
150.375
90.375
134.25
102.125
125.875
133.875
162.375
116.625
112.625
105.375
135.5
95
132.625
149.5
138.875
138.125
128.5
129.75
118.25
124.375
122.875
137.625
109.75
126.875
120.375
127.125
126.25
113
124.75
121.75
142.125
124.875
131
119.375
124.125
124
122
135.125
129
140.375
120.25
127
132.875
125.5
127.875
119.375
127.375
129.125
130.5
129.125
132.5
125.375
131.375
122.125
129.125
129.625
126
123
124
120.25
139.625
134.25
130.75
128.5
120.5
118
134
128
118
135.625
132.375
129.375
129.5
118.5
123.375
129.75
128.25
116
128.625
144.25
130.125
131.5
118.75
118
129
124
121.875
131.375
127
128.375
140.875
131.375
124.25
122.125
119.625
126.625
127
134.375
127
129.5
124
125.5
125.75
124
128.375
132.125
123.125
125
140.125
133.75
124.5
122.375
119
125.875
128.25
124.5
131.125
132.25
129.5
123.5
126.25
118.75
130.875
133.625
127.625
130.375
120.625
127.375
133
125.5
123.875
132.375
130.125
130.625
117.5
116
129.875
132.25
138
130.5
120
125.625
115.875
138.375
133.375
127.375
133.25
121.75
127.25
117.625
130.25
126.125
114.25
128
123.875
145.125
120.5
137.125
132.5
131.875
129.5
117.625
142.375
125.125
134
120.75
117.25
135.75
160.75
123.375
84
122.625
138.25
175.75
160.625
66.375
148.875
117.375
165.75
133.125
121.375
85
141
118
82.75
128.125
165.75
138.875
97
145.625
88.5
131.375
139.625
161.25
93.5
174.625
131.25
151.5
96.5
127.125
142.625
147.75
102.75
149.125
101.625
41
144.625
134.875
175.25
100.75
100
159.875
92.5
154.375
150.875
105.75
65
142.75
162.25
75.25
197.875
125.875
91.125
139.625
92.875
147.375
150.625
104.375
133.25
87.125
81
101.875
173.875
119.375
149
127.125
65.625
164.875
129
143.25
147
147.25
115.75
123.125
134.375
82
181.625
133.125
129.75
189.75
74
150.25
135.25
163.625
164.25
65.125
121.875
127.75
122
148
75.875
139.25
102.625
106
139.875
109.125
68.125
193.875
164.625
103.375
166.125
70.375
147.875
116.625
182.625
110.125
73
129.125
80.875
176
56
60.75
201.75
87.625
109.75
144.5
101.625
123.5
191.375
81
129.625
77.5
192.125
105
115.375
157.875
92.625
210.25
63.125
130.5
165.375
108.375
103.625
132.25
122.875
84.625
159.375
97.875
175
54
198.25
125.25
80
124.125
127.375
123.25
113.5
163.375
35
227.625
124
107.75
107.5
116.875
157.625
142
98.5
83
120.5
177.125
147.125
100
98.375
133
125.75
142.125
123.625
124.75
164.5
136.625
126.25
143.625
119.375
112
124.75
96
135.875
117.875
129.5
142
125.5
132.25
112.875
118
136.375
144
133.75
119.375
121.5
125.875
131.5
130.375
126.75
129.875
116
134.25
132
123.75
126
137.125
129.375
125.375
119.25
123.875
121
129.75
141.75
134.875
128.875
123.75
118.5
123.25
135
128.125
121.625
124.625
136.5
137.625
122.5
117.75
128.125
134.125
127.875
122.375
123.125
127.75
128.75
129.625
132.125
125.375
123.25
129.5
133.5
115
129.75
128
132.75
133.5
128.75
124.25
120.5
129.25
121
126.5
129.875
133
128.375
127.75
126.375
119
126.375
126.25
121.875
120
146.125
135
130.625
123
118
126.875
126.5
128.375
125.25
122.375
123.25
146.875
137.25
125
116
121.5
124.875
119
123.125
142.5
134.625
129
124.875
120.75
120
131.25
130.875
123.125
127.875
132
130.625
125.75
123.5
133
129.625
130.875
120.625
129.875
129
118.625
123.75
132.25
139.125
126.375
125.25
128
124.125
130.75
118.625
122.75
126.125
128.75
126.625
128.75
130.125
119.375
145.375
124
129.125
125.375
124.375
126.375
123.5
133.375
131.25
122.125
114.5
132.25
138.875
129.25
129.375
124.75
124.125
121.125
122.875
135.25
129
135
118.25
125.875
131.75
116.625
137.25
132.375
128.625
129.625
120.75
126.875
119.25
126.5
126.375
128.75
126.375
94.875
146.375
122.375
153
110.25
91.25
148.5
129
142.375
151.75
109.5
110.125
165.75
130.75
125.875
127.625
115.125
176.625
98.375
104.25
172.875
85.75
102.875
154.125
132.875
86.25
126
146.625
135.75
120.625
133.125
137.625
165.75
106.25
108.5
118.125
174.625
146.625
115.375
136.625
105.875
166.25
119.25
121
138.625
110.625
141.375
81.625
141.25
132.125
78
135.875
118.25
92.125
143.125
190
113.75
153.75
106
140
128.25
111.125
187.75
113
45
165.25
104.125
91.625
158.875
123.375
131.25
93.625
159.5
146
187.5
49
124.125
174.25
83.875
128.25
73.75
181.75
76
138.875
103.75
132.375
89.25
170.125
79.625
99.5
105.375
104.875
160.625
108.5
155.875
126.125
148.375
94.5
199.625
141.625
164.5
105.125
131.875
164.25
89.5
80.75
186.75
111.375
131.25
133.5
139
103.625
183.75
91.875
82.875
169.125
105.875
163.75
96
71.75
123.625
184.625
103.625
82.5
92.75
139.125
142.625
154.625
114.25
101.75
156.125
112.875
63
100
116.75
149.375
136.625
121.5
145.25
144.875
107
128.875
112.375
99.375
161
147
101.5
116.125
126
110.625
133.625
148.25
125.25
119.5
133.625
132.875
129
129.25
130.125
130.875
132
121.75
123.375
140.625
129.125
120.125
125.5
118.625
121.25
123.5
124.375
128
132.875
127.25
132
120.125
134.875
133.5
120.625
124.75
129.25
136.625
128.375
120.25
129
125.25
127.625
125.75
120.75
133.5
135.25
121.375
121.875
123.375
126.875
142.25
129.25
116
128.5
121.625
124.375
139
129.875
120.75
125.375
118
128.125
134.5
122.875
130.875
123.625
127.125
130.875
133.125
129.875
129.875
123.5
118.25
130.375
129.5
127
122
128.125
132.375
132.125
129.875
122.5
121
131
134.625
125.5
129.25
122
122.625
134.25
131.25
128
122.5
127.125
129.25
128.5
127.625
121
129.5
135
128.625
125.25
127.5
123.25
128.125
125.25
123.375
129.625
128.5
128.125
127.625
127.5
124
126.875
128.875
123.5
125.25
135.75
127.5
127.25
126.625
124.875
128.5
127.125
124.75
123.625
131.25
140.25
132.125
123
122.375
115.375
135
129.375
127.25
129.5
127.5
125.625
130
123
122.125
123.5
130.375
135.625
132.125
129.875
122.375
122.5
124.25
130.875
124.75
127.375
137.125
125.375
130.625
126.25
119.25
124.625
130.5
131
123.5
128.5
124.5
122.875
133
132.5
126.625
125.625
125.5
124.375
125.375
134.25
120.875
138.75
132.125
124.625
126.625
121.625
132.875
139.5
128.125
120.375
123.625
131.875
135.375
122
122.125
119.75
143.625
117.75
121.375
132.875
117.375
141.625
116.125
136.875
99
141.75
146
104
134.125
117.25
123.75
153
127
121.375
110.625
123.125
129
145.25
154.875
86
123.5
167.25
93.75
161.5
137.5
114.125
124.125
100.875
132.5
132.5
138.375
109.375
125.75
77.875
128.25
139.75
106.5
119.375
71
167.5
182.5
157.875
88.125
168.75
121
129.25
207.5
38
139.375
140.875
126.875
139.875
93.875
133
132.875
152
96.5
151.875
158.375
95.625
90
141.25
101.5
119.375
165.5
123.5
110
118.75
132
106.125
195.625
64.125
94.25
118.375
116.125
176.625
185.875
86.75
89.375
134.75
128.25
137.375
138.125
85.75
90
130.5
104
153.625
185.25
46
94.875
192.75
78.25
172.75
148.375
106.625
113.375
113.875
171.125
140
94.625
63.75
75.5
198.75
133.375
107
179.25
93
87
180.5
103.875
112.375
96.25
166.125
133.25
84
122.25
171.125
63.5
151
66.5
118
180.875
110.5
145.875
118
181.875
77.125
162.625
138.5
65.5
124.75
174.5
81.75
121.375
101.875
131
130.25
132.75
127
112.125
158.125
134.625
120.875
121.5
169.875
92.125
119.875
110.25
91.75
136
146.625
142.75
98
147.25
144.375
134.25
138.75
104
120.25
139.75
109
138.125
145
128.5
119.375
117
138.375
137.75
120.875
118.125
151.125
135
121.25
132
114.375
122.25
127.375
127.625
113
124
124.125
131.75
127.625
128.25
122
121.25
132.375
125
133.625
134.625
106.125
121
125.875
129.75
138
133
131.375
129.125
115.5
121.75
123
135.375
133.75
134.375
132
115
133.5
128.25
121.25
127
129.375
128.625
127.75
135.125
126.625
123.625
121.125
126.25
128.75
119.375
138.125
133.5
127.25
130.125
120.125
124.75
128.75
121.75
133
124.75
127.875
133.25
125.375
124.625
125.625
131.75
128.5
122
126.75
126.375
125
126.75
128.875
133.5
126.75
128.75
125
124.625
126
124
127.125
126.875
127.625
126
124.875
125.625
141.875
123.375
121
129
121.375
130.25
130.25
131.75
128.5
123.625
124.25
127.875
127.25
127.375
133.625
119.125
140.75
120.5
131.125
128.25
120
130.625
117.625
132.375
133.25
129.875
119.25
127.25
127.375
127.375
132.375
127
116
128.375
129.625
127.625
138.75
132.75
126
118.875
127.875
129.75
145.125
128.75
117
125.875
118.625
127.875
129.75
120.5
136.75
128
126.625
134.5
112
139.625
112.375
128.625
147.875
113
133.5
118.625
131.125
121.375
126.75
132.75
126.625
106.5
125.375
145
122.75
169.375
142.25
105.25
141
97.125
144.25
139
109.125
151.125
99.125
133.75
132.75
134.5
119.625
120.5
129.875
134.5
120.375
143.75
152.875
94
131
147.75
114
108.75
100.75
147.75
132.75
136.625
147.625
85.375
172.25
135
134.375
85
142
139.25
154.125
180
100.625
95.875
116
105.125
139
164.875
97.375
156.375
115.625
120
154.625
110.125
111
111
145.5
123.125
93
71.5
131.75
189.5
80
67
175
125.625
145.75
99.875
174.75
79.5
153.75
124.25
68.25
212.25
92.875
106.875
167
67.625
92.125
154.125
147.125
154.5
88.25
152.875
111.875
171.25
145.875
136.875
71.625
53.125
169.75
203.5
145.5
69.375
123.75
146.75
68.375
159.5
166.25
153.25
76
88.125
198.75
99.375
145.5
137
70.125
109.125
170.375
144.5
59
139.25
151
150.25
131.25
137.375
99.125
107.5
91.625
184.375
169.875
105.75
94.25
190.625
129.75
71.75
202.875
100.5
108.375
156.5
96.875
137
162.625
89.125
163.875
80.25
91.375
170.25
128.5
116.375
145.25
138.875
150.5
88.625
136.5
194.5
121.125
68
138.75
81.375
142.75
174.25
92
83.25
141.625
122.875
75.5
198
95
118.375
122.875
110.625
136.625
148.875
132.875
110.375
105.375
146.75
126.75
121.75
122.375
121
135.25
140.75
127.75
124.125
128.125
117.25
127.75
128.375
133.125
120.5
132.375
124
127
125
133.125
124.375
117
137.5
120.875
129.75
131.25
129.625
130.375
125.625
122.625
120.375
124.625
137.5
127.875
128.5
142.625
120.25
123.75
115
123.625
131
128.875
126.25
124.5
133.125
134.5
126.625
126.75
123.5
128.75
127.125
123.25
124.5
130.25
135.375
128.25
127.125
124.875
121
127.125
128.5
118
132.875
137.75
128.75
128.5
122.125
121
128.25
125
121.125
131.5
136
128.5
131.5
127.625
123
129.125
121.75
120
134
128.5
132
129.25
122.75
125.875
126.5
124.25
118
141.125
139.25
128.125
124.125
119
123.875
121.625
132.125
122.75
129.875
140.875
126.25
125.875
121.75
121
128
124.375
130.25
140.375
131.375
128.5
118
120
130.625
117
122.75
125
145
148.625
133.375
117
116
123.375
125.875
129.75
123
122.25
130.625
149.75
125.625
119.625
121.625
123.5
127.375
130.375
127.375
123.125
122
129.75
140.25
126.25
123.5
126.375
126.375
127.375
118.25
122.375
131.75
144.875
134
125.625
116.125
118.375
127
132
125.375
133.375
131.75
129.5
130.75
116.5
120.375
128.125
129.375
126.375
140.375
133
120.625
117.625
122.5
129.75
132.25
132.25
132.25
125.125
123.5
115
126.375
126.5
132.25
129.125
126.125
117.75
135.25
132.25
120.625
124.375
119
131.875
128
126.25
121.75
124.75
132.125
120.75
132.5
120.875
132
136.75
121.5
127.25
126.5
124.25
134.625
130.375
120.25
132.75
128.25
126.375
119
131.25
120.5
129.625
151.75
133.25
122.875
123.875
123.875
124.875
127.625
127.875
130.375
130.75
124
121
124
130.75
129.5
123.25
141.25
124.375
127.375
128.375
123.875
113.875
131.125
131.625
120.625
127.125
123.125
132.625
135.25
139.375
118.375
130.25
115.625
126
113.75
161.375
124.25
125.875
95
113.375
119.875
171.25
139.5
93.75
126.125
108.875
157.5
95.25
150.5
156.25
103
107
150.625
88.625
122.25
127.375
118
152.875
147.5
130.625
155
120.375
84.25
135.875
166
57.5
146.75
120.375
108.375
122.5
134.5
152
71
155.75
106.375
171.625
120.25
140.125
127
168.875
106.625
98
200.125
134.125
133.25
83.625
115.125
108.875
142.875
120.125
134.75
156.375
118.875
174.625
116.25
73.625
148.5
144.125
159.125
40
150.75
59
146
165.375
33
200.75
130.625
170
89.875
174.75
85.875
186.125
122.875
106.5
82.375
54.75
195.375
95.375
153.625
91.375
152
144.75
107.125
147.75
104.375
142
121.5
110.5
169.25
63
110.75
91
112
212.125
97.125
119.375
83
124.375
126.75
185.375
110.25
104.875
205.125
74.25
135.125
118.375
182.125
97.125
123.75
128
51.375
231.875
165.125
82.125
119.125
118.5
125.125
112.625
163.25
113.5
135
180.75
97.875
107
193.75
94
140.75
179.125
58.125
166.5
128
124.75
82.75
99.625
100.875
95
170.5
95.125
112.625
169.625
71.125
56.5
185.625
116.375
95.5
173.75
48.25
191.25
126.5
138.5
136
141.5
63.125
167.625
139.375
63.875
135.875
107.875
93.625
66.75
163.375
100.5
126.125
146.875
120.5
116.875
128.125
135.75
185.125
100.375
101
112.625
120.375
118.25
126.5
122.875
146.625
136
142
109.375
110.125
121.75
148.75
101.25
133.75
135.625
114
145.25
124.5
131.125
130.75
133.125
126.625
116.625
148.25
116
130.75
121.25
125.375
134.625
115.875
135.75
124.75
133.5
121.375
130.25
128.125
121
123.125
127.875
128
121.875
129
132.875
120.625
119.5
127.125
132.5
131.25
129
126.5
127.875
131.25
126.625
130
123.625
128.125
124.125
125.375
127
125
128.625
131.875
126.125
120.625
136.875
134.375
128
122.25
119
129.375
131.75
130.75
124.5
124.25
127
141
128.625
120.5
124
122.875
128.75
122
123.875
136.875
137
129.875
124.375
118
126.625
127.625
124.625
131.625
132.75
125.75
130.625
125.125
125.375
128.125
128.375
126
118.375
125.5
142.625
131.625
128.75
123.875
119.875
125.875
126.375
119
124.375
148.625
128.875
131.875
122.375
117.875
128.75
131.625
120
130.25
138.5
128.625
129.125
120
120.75
129.875
121.625
133
133.875
133.75
128.75
122.25
115
129.75
123
125.625
139.125
137.625
133.375
115
122.75
120
130.25
127.75
126.5
138.625
134.125
122
119
120.125
125.375
133
134.625
131.25
124.375
116.5
117.5
142
132
132
124.5
117.5
127.5
130.375
125.125
129.375
127.75
123.25
127.375
122.5
130
143.375
124.625
106.125
127.625
131.375
129.875
120.375
122.25
132
132.625
130.75
139.375
117.5
137
131.125
122
131.625
114
135.75
129
113
132.5
120.5
124.25
110.125
143
123.375
141
142
119.875
122.625
119.125
137.125
114.125
104
113.625
151.375
132
128.375
116.75
95.375
131.125
143.25
146.375
93.75
134.875
137.25
114
127.25
117.125
137.25
116.875
138
104.375
148.75
122.5
117.75
112.125
130.625
138.75
121
162.625
117.375
136
121.875
120.5
124.625
162.875
135.25
108.375
129.375
138.25
87.5
175.5
124.625
94.625
152.25
112.625
84.75
171.125
132
118.75
107.75
95.5
154.625
198.5
147.875
72
106
116
107.75
143.5
150.375
99.5
117.875
150.25
148.375
139.25
137.375
93.875
128.875
107
79.875
142.75
118.625
103.125
157
134.125
138.375
111.875
98.75
153.75
126.75
165.75
112.375
88.25
73.25
96.25
173.125
134.5
170
108.25
105.875
161.75
158.875
150.625
138.875
139
42
184.375
141.875
70
66
161.125
157.75
230.75
100.375
74.375
107.375
111.75
160.5
147.125
136.25
47.125
165.125
89.625
117
119
105.375
130.375
128.125
63.375
160
86.625
169.5
127
117.75
152
62.25
145.5
168.875
53.375
212.375
88.625
88.125
177
103.25
134.625
142.875
126.875
113.875
116.625
96.875
102.5
103.75
114.625
130.75
152.5
177.375
85.875
126.125
155.75
139.375
151.25
154.875
66.5
121
164.125
72.375
80.875
139.25
118.125
189.375
125.5
87.625
146.5
142.25
117.875
139.75
123.5
68.625
217.25
51
182.625
83.25
131.5
100.875
85.75
190.125
66
118.75
119.25
155.625
88.75
213
66.75
51
141
108.75
147.25
180.75
79.625
191.75
77.125
118.625
143.125
119.375
118.25
75
135
140.375
154.875
147.625
100.875
84.125
144.875
144.375
137.625
103
131.625
135
132.625
122.25
123.25
120.75
134.5
136
146.5
119.25
138.25
120.125
116.625
120.75
139.75
106.75
140.625
139.625
115
128
157
129
127
108.125
117.25
111.25
143.625
125.75
132.25
126.125
122.25
124
126.875
125.625
139.125
121
113.75
130.25
140.125
124.5
135.25
121.25
119
125.5
137.625
128.375
129.375
123.75
120
128.125
130.875
127.875
123.5
128.625
126.125
135.25
125.625
124.75
131
129.5
123.5
121
127.25
133.25
132
131.25
126.375
116
121.125
142.375
126.125
126.875
122.25
125.625
125.625
129.75
129.75
131.75
130.25
124.375
127.625
123
122
126.125
136.75
128.25
128.625
129.5
119.625
119.625
129.75
133.875
124.375
126.75
127.5
132.5
134.75
122.125
122
122.875
122.75
132.25
136.5
128.75
125.625
117
118.5
142.5
135.625
130.875
125.625
112
123.375
139.5
130.25
127.125
124
121
127.25
131
132.375
123.25
130.25
123.625
120.375
129.375
138
116
130.75
125.75
129.5
124.75
125
132.375
128.875
127.375
113
122.625
138.875
127.5
131.25
126.375
116
131.25
139.875
126.5
120
123
117.875
135.125
132.375
129
129.875
117.125
127.625
132
136.75
126.375
119.875
122
127.25
123.75
129.25
135.875
125.625
126.25
124.75
129.5
133.625
130.875
121.125
121.25
116.625
136.75
133
130.25
125.125
132.125
132.75
127
122.875
128
129.875
133.125
135.875
126.125
122
122.125
122.875
129
128.625
128.25
121.375
128.875
127.625
122.5
123.375
120.75
144.5
122.875
125.25
122.75
118
127.375
137.5
129.625
127.875
129
126.75
131.625
120.875
137.625
124
129.875
128.5
116
133.75
131.25
114.375
145.625
136.625
107.125
122.5
115.875
127.875
139.375
120
126.875
140.375
135.25
139.75
101.75
102
160.5
114.875
150.375
104.625
88
181.25
155.375
140.625
111.25
88.875
102
143.125
140
136.875
138.5
123.375
106.875
99.125
154.125
90.125
160.375
142.875
117.375
128.375
176.5
139.75
127.875
100.75
67.625
102.25
163.125
182.875
181.5
106.5
70.375
156.75
179.625
113.125
133
117.125
102.75
160.875
87
83.5
129
132.875
129.625
103.5
77.5
109.5
200.5
138.75
154.5
87.5
143.125
157
94.125
130.125
76.5
176.125
98.375
152.75
123
125.75
86.875
148.75
102.25
175.25
107.625
124.625
201.5
82.75
113.375
191.375
89.5
84.875
194.875
85.5
131.125
87.25
93.25
96.375
162.5
122.75
140.5
161.75
90.125
153.75
125.625
164.5
122.875
139.5
103.25
73.125
108.25
140.875
144.875
95.5
155.5
109.75
156.375
105.625
95.25
129.375
161.625
88.875
124.875
142
73.125
174.75
128.875
109.25
139
166
51.25
127.625
105.875
105.75
156.875
72.75
82.625
137.625
129.25
114.75
127.375
115.5
97.5
179.125
77.625
96.125
144.625
132.375
122
193.75
128
138.375
156.625
140.75
89.75
107.625
149
156.375
160
91.875
130.25
105.75
191.25
114.625
114.25
142.125
95.5
176.75
146.625
60.875
119.875
112.875
84.625
128.875
108.125
177.125
119
71.375
123
137.75
121.375
91.875
194.5
76.625
89.5
129.75
82.375
133
153.125
114.75
91
86
151.25
159.25
140.875
129
135.875
142.5
101.125
95.625
148.625
142.125
126.5
134
148.75
126.125
118
146.625
130.125
120.625
123
124.75
129.25
128.625
135.625
131.375
132.75
142.375
127.25
138.25
119.625
106.75
115.25
126.125
145
128.625
131.125
127
116.5
121.375
126
132.125
121.25
126.625
133.75
125.125
121.375
125.125
130.375
130.625
129.25
131.25
124.875
125.625
127.125
123.125
131.75
119.25
131.5
133
129
126.75
125.875
122.75
127.25
126.25
132.625
134
129.5
126.625
120
126.75
129.375
130
126.375
127.125
126.75
128.5
125.25
123.5
124.5
131.25
132.75
128.875
124.25
128.75
124
127.75
128.375
125
117
128.25
144.875
137.75
129.5
119.625
118
123.375
126.125
129.625
127.25
125.375
125.625
129.75
131
125.25
132
128.125
125
123.75
128.5
129.625
125
125.875
123
120
137.75
139.875
126.125
123.875
117
124.5
127.25
116
141
140.25
127.25
129.375
119.5
120.875
125.75
128.875
129
129.625
127.125
129.875
122
123.25
125.375
138
130.5
123
125.375
130.625
127.25
127.125
129.875
129
123
124
128
130.5
129
126.375
126
127.875
121.75
124.5
130.125
129.125
126.25
126.75
124.375
126.375
128.375
125.25
136.125
123
127
126.375
132.125
120
117.375
130.125
115
133.875
128.75
131.5
131.25
125
130.25
119.875
130.625
121.25
154.125
125.75
128.375
117
122.75
129.25
126.5
129.625
120.25
132.5
121.875
127.875
111.875
162.875
129.625
147
125.5
85.875
134.625
109
151.75
137.25
126.75
93.5
161.375
106.5
154.25
116.5
105.75
121.125
111.25
167.625
124
116.25
134.375
168.625
116.625
125
117.375
169.375
111.875
147.625
91.875
93
141.125
166
99.25
173.375
108.875
83.75
140
121.125
134
152.875
96.875
103.5
145.25
82.25
132.75
133.375
106.875
148.5
114
126.875
146.25
168.5
138.125
92.75
128.25
109.5
163.125
84
165
104
116.375
119.625
112
142.375
148.125
93.125
90.5
146.75
156.75
172.375
161.25
43
121.375
164.5
118.875
164
115.75
90
122.625
149.125
85.375
184.875
65.25
117
152.625
117.875
144.75
88.625
108.75
145.75
126.25
146.875
92.625
116.875
156.875
152.25
172.5
67.375
164.75
134
98.75
166
83.625
108.75
132.875
162.5
95.125
117.5
126.625
99.375
140
139.25
143.125
84
175.125
47
164.625
130.75
166.25
74.75
111.375
130.625
106.625
128
138.25
118
112.375
122.375
152.875
113
97.375
177.5
169.375
165.875
107.875
111.375
74.625
138.75
194.875
111.125
98
143.125
171.375
177.75
28
135
186.125
113.75
147.75
126.625
62.75
143.125
146.375
71
162.875
80
131
162.875
72.75
182.25
100
49
163.875
121
110.375
152.5
84.5
150.375
147.125
165.125
71
127.125
146.5
124
172.5
107.75
118.125
103.125
135.625
132.25
122.625
132.5
88.5
102.5
151.5
126.25
118.625
128
117.375
185.875
109.625
105
76.375
97.25
113.25
128.75
116.875
149.375
83.5
91.375
193.125
76
200.5
204.375
74
135.25
73.125
88.5
113.625
124.375
142.5
139.875
138.375
129.125
94
158.625
170.25
136.5
125.125
101.75
121
141.625
145.625
129.375
138.375
89
129
148
123.625
126.25
112
112.625
133
132.5
140.875
118
112.5
126.75
125
131.375
144.875
127.25
117.75
123.25
128.25
126
133.625
126.375
123.625
124.5
130.25
139.375
120.5
129.25
130.625
131
127.25
117
124.875
127.25
127.875
128
125.625
129.5
131.375
130
129.875
118.625
117
138.625
131.125
132.125
125.5
119
125.125
121.25
127.375
150.25
129.875
127.75
120.25
121.125
129.5
128
120
130.75
135.625
132.375
133.75
120
119
131.25
130.25
121.625
120.875
120.5
148.75
132
128.5
125.5
119
126.5
127.625
125.125
127.5
124.25
119.125
131.75
143.25
129.625
124
124
119
123.625
130.375
128
126
123.25
133.625
130.875
126
125.875
125.375
128.375
126.375
126.5
129.75
128.375
124.75
126.375
136.5
127.875
122
124
120
124.25
127.375
131.125
131.25
130.125
123.875
122.625
126
129.5
125.75
129.75
127
125.375
128.875
127.25
120.625
130.625
135.625
128.125
128
120
125.75
126.25
127.375
127.125
129.625
130.5
129.125
124
125
122
125.25
132.625
126.875
126.375
127.5
124
128
127
126.625
142.625
122.25
127
124.875
123
122.75
131.5
136
129.625
118.875
128.375
127.5
114
137.75
126.25
127.75
124.625
130.875
121.5
138
130.5
129.375
116
120.375
141.875
121
153.625
100.625
126.875
110.625
108.75
135.5
145.625
132
140
106.75
130
115.125
190.625
108.625
101.25
116.625
119.625
157
106.875
144.125
116.25
134.75
128.375
138.5
110.625
134.25
145.5
128.75
132.375
88
136
136.875
123.625
143.5
129.5
98
120.375
127.25
128.125
167.25
107.125
153.75
131.125
104.25
144.5
146.375
118.5
80
108
106
197.875
77
173.875
114.875
90
127.625
117.375
147.75
111.5
148.5
115.625
136.75
92.125
93.875
123.125
113.25
108.5
195.5
57
121.5
161.25
171.5
137.75
139.875
112.875
126.125
150.25
113.375
112.25
124
135.375
185.125
145.875
47
199
128
124.5
140.375
133
70.25
118
180.125
69.5
142.75
168.875
120.25
157
93
115.25
187.25
51.875
100.375
200
93
90.25
133.125
127.625
118.625
92.5
196.75
73.25
119
106.875
138.875
139.375
129.375
102
67.875
148
187.625
122.5
118.875
77.25
140.25
199.875
112.875
111.875
136.375
91.75
100.375
148.5
140.5
148.375
91.75
183.125
78
185
93.25
148.625
156.375
141.875
166.625
46.75
137.625
128.75
185
122.25
90.125
114.125
123.625
152.75
112.875
104.125
144.125
157.625
118.875
86
161.875
85.625
132.5
78.625
176.25
101.375
148.375
150.625
49.625
130.625
119.375
156.375
108.125
135
122.75
82.5
147.625
205.75
79.75
132.875
128.625
111.375
97.375
202.625
99.75
104.5
155.75
68.25
170
155.25
77
203.875
104.25
83.25
139.625
111.25
143.625
140.625
147.5
116.125
124.625
74
116.875
142.25
124.625
118.75
146
154.375
67
95.875
117.125
120
125.625
141.625
134.25
121.75
136.25
123.625
130.125
143
112.125
129.25
124.25
96.875
125.5
129.25
120.5
129
140
118.875
128.5
112.875
127.875
145.875
76
129.625
160.5
135.875
141.375
116.125
122.875
126
137.125
120
133.875
126.375
133.125
129.75
115
123.625
130.25
125.625
132.375
128
133.5
121.875
131.375
134.5
128.75
121.5
130.125
129.5
133.125
111
131.25
136.375
119
132.75
127
126.625
124.25
129.5
130.75
124
127.625
124.375
121
132.75
134.375
129.5
123.25
122.75
125.125
127.375
127.375
131.375
127.75
129.75
137.625
123
123.625
124.5
125.75
130.25
129.5
131.75
125.75
124.25
128.5
127.25
125.625
120
126.25
133.375
134.625
123
130.125
122
123
126.625
127
127.75
127.5
128.875
131.5
123.375
124.25
124.75
127.5
132.625
126.75
128.25
126.125
126.375
123
128.75
128.875
133
126.5
122.5
129.625
130.625
124.375
131.75
123.375
123.75
132.625
125.625
130.875
128
130.25
126.375
127.375
125.875
124.75
133.375
125.625
122.375
131.125
116.25
133.625
115.5
125.125
129.875
132.25
130.5
125.5
128
123.25
136.5
130.75
130.375
127
114.25
118
136.875
125.875
134.875
138.625
123.375
124
128.5
122.75
124
129.625
130
130.5
124.375
106.875
137.125
116.75
151.875
126.125
125.875
115
116.25
137.25
122.375
130.75
128.625
126
121.875
141
127.25
127.125
122
140.125
123.875
119
117.375
144.375
127.375
124.75
131.75
93
133.5
136.625
132.75
111.5
162.875
134.25
117
123.875
94.375
115.25
135.5
159.125
132.25
108.375
99.375
130.5
133.125
151
120
126.125
113.25
143.75
122.375
117.875
116.875
141.5
179.375
99
131.25
111.5
114.125
152.5
109.125
108.25
127
139
130.5
133.5
158.5
122.5
109.875
111.125
165.875
143.5
161.75
120.625
121.375
112.75
121.75
157
126.125
121
94.375
190.375
78.375
125.875
136
111.875
160.125
127
121.875
110.875
95.25
128.125
111.75
142.25
136.375
127.5
165.5
59
170.75
110.625
115.375
135.125
133.25
79.125
149.5
158.25
68.375
183
82.25
112
135.625
110.5
154.5
100.5
116.25
148.125
150.625
150.875
107.5
59
110.625
175.25
181.125
120.5
124.875
107.75
131
129.375
95.5
140.5
79.375
159
123
110
148.5
185.875
101.75
73.5
151.75
87.375
194.5
61
143.375
133.625
98.375
149.875
78.5
152.125
166.125
148.75
137.125
75.375
149.625
169
137.375
96.125
169.875
118.5
71.75
169.125
123.5
122.75
158
148.75
45
97.625
162.5
119.125
98.25
107.25
139.25
162
186.375
69.875
95.625
93.375
71.25
233.75
102.375
121
150
94.625
77.5
142.5
204.75
49
95
164.75
126.25
117.875
115.125
91
99.875
148.375
71.625
182.375
49.25
136.75
208.625
87.125
43
180.25
117.625
159.375
208.625
62.75
152.375
111.25
93
117
149.25
91.5
89
162.25
149.25
136.25
131
102.375
176.5
77.5
121.125
149.875
91.375
105.125
154.875
179
58
135.125
99.625
171.75
135
91.375
128
136.75
63.125
154.5
140.75
87.75
139.875
149.625
143.625
101.25
125.75
130.625
97.375
65.875
195.375
40.75
114.875
148.75
96.25
209.75
73.75
144.5
114.75
67
178.75
122.375
145.125
49.75
91.5
115.25
144.625
118.875
99.5
123.375
145.5
129.25
101
112
118.625
200
152.125
110.25
96.375
97.25
122
148.625
144.125
139.5
139.875
97.625
119.25
142.875
145.875
127
112.625
132.25
144.25
155.125
108.375
140.75
158
129
117
117.875
134.875
121
131.25
108.5
136
117.25
136
121.25
126
127.75
124.625
125.625
119
128.75
123.125
130.5
129.75
122.875
138
134.125
122.125
120.875
129.375
129.375
126.375
129.125
133.375
127.5
129
122.625
123.625
135.625
125.5
130.125
127.25
120
128.5
128.625
127
131.25
124.5
121.25
134.75
137.25
126.625
125
124.25
122.5
124.875
126.75
128.25
135.125
131.25
129
124.75
121.75
126.875
126.125
124.375
129.75
133.75
129.75
125
120
126.25
123
128.625
136.5
130.375
126.5
127.25
121.75
125.125
130.875
126.875
124.625
125.5
129
128.75
128.375
125.875
133.125
127
123.75
126.125
126.875
128.375
123.75
125.5
134
129.25
124.5
130.875
127.625
122.375
121.625
138.125
128
129.125
125.5
116.25
132
131.75
128
123.25
132.25
127
130.875
127.875
118
124.625
137.875
126.5
128.875
127
120
118.25
147.5
121.375
133.75
126.75
122.5
129.125
124.375
126.125
119.625
131.25
130.625
133.25
121.875
124.625
126
128.375
124.375
133.75
127.375
129.25
122.625
128.75
129.625
127.625
130.75
118.875
121.75
130.375
134.25
130.875
124.875
124.75
124.125
126.25
128
131.625
128.5
128.875
123.25
126.125
129
125.5
133.25
131
116
131.125
121.75
125.875
132.875
119.75
134
122.375
129.625
136.5
125.875
125
122.125
135.75
125.25
123.125
132.25
104
131.5
138.375
130.75
154.625
98.5
103
127.125
127.125
138.875
139.125
122.5
119
137.5
121.5
135.25
149.625
102.875
137
119.25
124.25
142
128.625
120.625
109
134.25
99.625
159.875
111.625
149.625
134.25
97.75
150.5
88.25
162.625
112
137.75
139.25
101
93.25
129.5
147.625
150.875
164.75
62.25
132
120.75
168.375
94
146.25
130.75
84.5
183.375
157.375
83
127.375
105.875
64
144.125
163.375
121.375
135
156.875
85.25
129.625
79.75
191.25
104.375
132
107.25
83.375
210
95.875
146.5
143.5
65.125
192.25
117.75
100.875
82.125
118.875
186.375
112.5
129.875
104.875
111.125
112.25
189.25
98.5
121.875
129
111.125
127.875
160.875
100.25
171.375
136
99.5
115
142.125
75
156.5
137.75
104.125
131.625
131.75
131.375
110.75
159.125
52
157.75
167.75
118
103.75
169.625
61.25
145.25
126.375
108.875
64
133
123.125
134.375
181.75
118.625
111.5
163.375
123.875
113.75
146.125
116.125
140
106.5
153.125
134
108.625
132.25
120.125
182.375
105
158.125
83.125
116.125
168
143.375
129
206.25
65.625
133.75
154.125
66
154.5
144.875
177.75
50.625
85.625
108.125
153
76.25
187.625
117.375
66.75
179.625
137.625
122
151.625
25
143.125
179.375
96.875
146.625
62.875
70.5
149.5
138.875
105.125
107.5
117.125
194.75
134.125
110.25
107.125
77
116.125
194
108.625
91.75
128.875
121
153.625
128.625
157.25
55
174.125
87.75
89
149.25
114.625
186.875
64
96.5
198
120.875
92.375
92.375
95.875
176
125.25
108.875
100.125
104
120
175.125
144.125
103
97
85.375
84.125
136.125
190.625
164.25
96.875
80
164.75
165.75
91
113.625
115.875
149.625
144.375
128.5
142.625
120.5
134.375
127.875
135.5
122
114.625
141.25
126.125
119.125
127.25
121.5
113.125
125.875
128.875
134.75
125.25
126.5
128.125
129.75
134.625
118
116.5
136.5
132.125
129.25
124.25
121
132.875
130.125
128.625
123
132
124.25
124.25
133.5
114
123
134
129.875
137.5
124.25
120.625
123
135.75
127.125
131
123.875
123
128.5
129.125
127.75
128.625
122.625
123.25
134
125.5
133.375
123.25
130.25
130.625
121
124.5
123.5
129.75
133.125
130.375
125
122
120
134.5
133.875
128.625
126.25
118
127.625
135
127.125
124.375
132.75
123.125
122.125
133.75
123.75
126.625
127.375
129.375
127.875
126.75
129.375
128.5
124
129.625
130.25
127.125
123
116.25
137
132.875
124.875
126
121
127.125
136.625
127.75
128.375
123
126
130.125
126.125
125.125
129.375
129.375
125.375
126.125
125
127.75
129
127.25
126.125
134
130.625
125.75
125.625
124
126.375
131.125
128.75
127.5
119.875
120
127.75
135.25
132.5
124.875
118
117
136.625
132.375
127.75
127
122.875
123.875
133
130.5
124.625
126
125.625
127.875
125.25
126.125
122.125
136.375
129.625
125
135.625
123.75
121.375
130.125
127.125
125
127.625
129.25
129.375
125.375
121
126.625
114
135.25
138.25
132
122
122
130.125
125.125
126.875
132.625
124.375
125.5
119.75
132
106
154.375
122.25
110.625
125.25
118.625
148.625
124.125
128.625
139.125
108.75
143.125
110
138.25
115.5
137.25
113.75
111.625
151.75
114
131.75
123.625
132.75
148
130.375
100.625
152.125
134.5
126.5
108.125
154.25
133
127.125
116.75
156.375
115
127.375
142.375
84
100.75
178.125
108.25
190.625
161.375
134.625
104.25
93.25
140.125
146.25
153.5
103.25
102.625
130.75
97.625
155.25
130
133.5
99
109.75
104.875
177.5
141
135.375
100.625
110.625
112.125
134.375
135.625
88.375
214.5
52
116
195.125
78.625
144.625
173.5
111.875
78.125
199.75
52
113.125
156.75
75
111.25
78.375
191.875
79
131.75
156.5
68.25
90.5
145
162.875
127.25
168.375
131.875
121.375
175.75
85.25
132.75
112.25
136.875
101
163.25
66.875
144.875
150.375
160.125
113.625
117.75
175.125
136.125
109.875
178.625
143.5
84.5
108.625
87.625
152.75
111.625
168
77.5
34
193.5
76
161.375
113.25
123
75.25
138.5
119.5
151.375
65
182.625
102.25
88.125
194
135.125
152.875
131.875
161.875
148.25
77
103
144
146.5
119
168.75
144.25
114.625
110.25
159.75
158.75
75.625
155.75
172
136.75
126.875
144.375
110.625
112
101.75
163.375
81.375
105.625
99.75
156.5
114.875
139.625
147.5
138.25
79.625
117.875
162.375
134
120.75
87.625
116.875
150.25
153.125
146.75
70
138.125
139.375
128
130.25
102
104.125
124.125
163.625
162.875
104.75
138.125
87
138.5
137.5
129.625
122.125
116.625
110
129.875
121.875
126.25
118.375
124.25
134.25
105
154.375
136.125
121.375
122.5
119.875
121.75
140.375
123.25
126.125
127.875
130.625
132
128.875
133.25
119.25
135.25
124.5
121.25
123.125
143.75
130
126.75
124.375
122
125
122.25
132.25
132.25
127
129.375
126.625
123.5
134
129.375
129.875
120.75
123.5
135
131.75
124
125.875
123.5
123.875
128.875
130.75
130.25
128.25
125.25
118
128.875
139
133.75
123.5
121
123
122.375
130.375
129.875
127.125
131
123.5
128.625
126.75
125.5
129.375
132.875
125.125
135.25
123
125.875
127.75
128
122
128.875
130.375
133.125
130
123.125
124.875
122.375
126.375
124.375
132
136.25
124.625
127.5
126
119
130.875
134.5
134.125
122.875
119.5
129.875
130.75
127.5
126.625
124.25
135.375
120.125
119.25
140.5
127.625
129.5
125.125
123.375
122.625
123.5
133.375
123.5
125.125
128.625
133.25
125.875
124.375
119
127.125
140.625
126.75
128
128
119.375
124.5
140
124.125
120.5
126.25
125.875
133.875
125.75
123.125
120
134.5
133.375
125.875
128
123.25
117
138.5
131.125
122.125
131
133.875
127
124.25
124.125
116.5
130.5
126.875
120.25
144
121.875
134.25
125.625
109
130.5
138.5
113.875
125.875
116.125
132.75
144.375
138.125
137.25
128.125
129.75
124.125
129.125
95
122.875
142.75
131.125
158.625
131.375
151.125
100
99.375
119.125
132.75
135.875
148.375
133.75
133.625
104.375
118.625
124.125
132.25
126.5
126
153.5
80
129.625
120.125
100.125
159.5
162.5
121
96.625
94.625
130.625
151
119
137.5
123.625
146.375
149.5
116.5
144
133.875
124.25
98.875
139.5
175.875
149.125
96
119.375
89
116.125
120
80.375
135.125
172.5
174.5
152.625
92.125
78.125
143
211
71
138.25
76.75
150.75
167.5
106.25
100.125
169.125
67.75
97.375
158.125
90.125
141.125
167.125
149.5
131.75
108.25
123.625
169
99.375
151.375
120.875
106.375
160.625
108.625
121.5
131.25
152.875
109.5
155
71.125
173.625
142.75
85.25
139.5
85.875
167.75
124.5
136.25
100.125
189.125
148.125
154
74.75
116.875
175
148.375
69
110.75
95.875
181.625
136.75
115.25
99.125
113.75
129.375
166.25
96.5
120
118.25
142.75
70.25
86.375
202
152.25
170.125
54.5
174.75
57
175.25
159.25
134.625
86.5
119.75
110.625
142.5
142
108.625
77.125
154.25
87.25
130
142.25
61.75
110.875
186.125
107
105.375
215.125
62.5
174.75
98.625
136.25
172.5
90.625
132.875
178.625
121.625
158.25
85.375
149.125
165.875
108.75
140.125
96.625
70.625
185
100.5
107.375
199.625
80.5
184.375
116.75
64.125
152.125
155.5
93
152.125
61
103.625
105.75
118.25
150.75
93.625
138
139.75
103.5
200.75
101.25
168.75
71
110.875
196.5
71
115.375
83.5
190
112
200.5
30
171.375
98.5
155.75
174.875
49.5
104.125
169.125
151.75
93.875
62.375
122.125
131
132
122.625
91.5
154.625
117.5
120.625
76.75
107.875
106.125
196
131.75
72.375
117.875
122.625
154.375
146.375
81.875
186.75
101
165
140.375
114
100.625
116.375
155.125
141.125
103
115.875
100.5
174.5
152.625
133.5
109.125
120.375
168.75
130.625
130.5
84
146.375
113
128
136.25
110.875
115.5
132
121.625
139.125
134
121.625
114.625
135.5
127.125
129.875
129.875
131.5
122.375
134.25
124.375
134.375
124.875
131
126.5
128.25
120.25
127.875
127.625
137.25
126.125
125.875
118.5
124.375
128.25
129
127.125
128.875
128.625
131
125.75
135.875
110
127.875
132.625
123.375
130.25
134
127.375
126.75
128.75
122
118.375
130
138.125
126.25
127.375
118
119.25
135.375
134.75
131.375
130
119
118.375
131.125
128.75
124.75
131.5
130.75
127.875
124
119.375
130.375
138.75
126.75
124.875
116
123
132.25
125.75
127.5
129.25
129.625
135.125
128.25
125
120
125.125
125
132.75
131.125
131.125
124.875
120
125.75
134.875
130.5
130.125
124.875
115.375
125.875
140.125
129.5
129
123.375
121
121
137.875
126.125
127.125
126.125
123.625
130.875
129.375
129.625
130.25
119
120.25
130.625
127.25
130.5
124
125.625
132.375
133.625
120
132.25
105
151.375
134.5
130.5
124.625
114
125.875
130
129.875
118.875
133.625
138.375
127.25
124
117.25
123.375
139.75
132.25
125
117.875
126.875
127.25
132.875
126.875
123.625
123
127.125
129.375
127.875
125.375
119
128.625
138
127.875
123.375
119.375
122.625
131.125
133.125
127
123.25
122.875
136.25
133.375
123.5
125.125
129.875
119.625
116
126
137.125
140.25
125.875
119.875
120.125
125.375
125.5
127.875
136.25
133.25
127.125
127.375
121
125.25
131.625
129.625
130.5
126.375
123.625
125.125
122
135
132.625
131.125
121
119.875
130.75
132.625
126.625
121.5
122.375
135.375
134
125
126.5
123.875
123.375
126.375
130.375
128.125
132.75
128.75
126.875
123
122.625
126.375
129.375
122.75
119.5
133.875
140.375
128.25
124.5
121.375
123.625
128.625
126.25
134.875
124.75
123
124
121.25
133.5
127.375
130.75
128.875
127.125
129
127.5
119.125
126
134.5
140.125
107.75
153.625
107.5
124.125
132.75
116.25
137.5
138.625
131
122.5
125.25
140
127.25
92.25
127.375
115.625
150.125
114.875
160.75
94.625
121
172.375
114.25
174.75
82.125
145
170.75
110.625
62
111.125
152.875
140.625
187
96.25
123.125
152.75
142.375
150.875
86.75
130.875
137.875
102.75
133.125
134.5
171.875
86.375
69
125.375
110.75
164.875
142.5
96.875
123.625
72.375
98.5
146.125
88.375
156.625
105.5
101.625
110.125
135.125
197.5
68.375
160.75
107
119
101.875
169.375
92
170.125
128.125
111.5
171.875
110.625
86
131.625
136.875
140.375
210.875
68.375
109.625
154.25
72
159.25
157.5
56
177.625
140.875
89.125
137.375
124
49
180.25
106
150
122.25
118.625
137.75
145.125
124.5
139.625
119.5
205.5
125.75
173.75
85.25
154.5
67
123.75
96.875
105.625
127.625
113
154.875
129
132.25
46
145.625
62.875
163.375
120.5
117.375
54
153.125
80.75
199.75
106.5
106.5
78.25
135.375
126.875
134.375
158.5
76.5
185.5
113.75
213
47
125
84.125
168.75
127.375
144
173.375
56
145
104
157.875
153
162.5
121.125
137.375
107.875
125.625
154.25
101.125
87.25
112.875
118.75
138.125
141.625
155.5
106.875
86.375
133.75
133
93
173.625
91
89.75
167.25
143.625
148.25
168.625
82.5
85.125
132.25
74.25
153.625
129.75
215
100.125
105.125
115.25
119.875
181.5
133.625
131.25
75
106.5
87
134.75
134.75
144.125
145
120.875
116.625
107.375
130.5
145.875
109.375
133
144.5
130.375
129.375
103.375
128.25
135.25
141.75
134.25
115.375
145.5
139.375
135
123.375
133.875
118.25
132.375
128.625
116.25
130.625
135.375
120.875
118.25
132
116.125
126
123.375
130
136.5
120.5
124.875
136.875
132.375
125.125
128.25
119
125.625
124.375
119.75
118.875
155.25
132.5
126
114
115.625
131.25
131.75
124.625
128
129.375
126.125
134.625
121.125
123.75
136.125
132.625
126.375
126
126.625
126.625
122.375
126.5
133
127.75
129.75
127.5
122.5
117
128.5
137.625
132
122.625
122
124.375
125.875
130.75
128.375
125.25
125.5
131.25
128
122.875
129.375
129.625
125.75
125.75
125.75
126.375
126.5
125.75
125.25
134.375
134.625
130.875
129.375
120
124.25
127.25
124
126.375
130
134.375
127.5
126.125
120
127.875
129.375
124.5
128.75
128.25
134
130.375
125.125
121
125.5
127.5
130.75
122.875
133
128.75
131
124.75
126.5
127.25
127.625
128.875
125.5
116
125.5
141.75
138.125
127.5
120
120
124.375
129.125
126.375
129.125
123
130.75
135.25
129.5
124.25
128.125
126.5
125
123
127.75
126.375
124.625
125.5
121.875
135
131.875
125.75
129.125
120.5
125
126.75
121.75
119.25
149.375
136.875
134.125
120.875
118.375
119.25
129
121.125
141.375
130.125
127.125
120.5
121.5
116.625
126.5
130.625
117.75
135.125
123.25
134.625
127.125
138
123.5
130.25
123.625
114.75
124.25
143
122.375
121.625
128.5
119.875
125.375
130.375
133.875
132.625
124
125.625
126.5
131.5
125.75
129.75
130.875
124.625
126.125
129
130.25
126.5
123
127.125
129.5
127.875
130.25
121.375
120
135.125
131
134
119.875
110.75
137.625
137.625
115.375
134.25
121.125
103
132.625
127.375
137
136.125
128.125
139.875
103
129.625
141.875
102.25
163.125
117.25
133.25
130.75
100.5
149.875
122
141
111.5
143.25
146.75
108.375
164.5
110.25
104.125
93
121.125
136.5
155.5
150.125
90.625
138.625
97.875
135.25
170.25
82.25
168.375
92.75
101.75
143.5
164.875
164.5
93.625
115.5
90.25
119.5
166
119.375
125.875
186.75
127.25
114.875
144.125
115.375
181.5
152.625
68.375
104
209.75
72
137.125
143.125
119.875
146.875
172.25
96.25
43
186.875
91
132.875
146.75
103.125
106.25
164.875
116.125
111.875
146.125
111.5
88.25
121.125
158.125
114.625
112.625
152.75
123.75
114.125
165.875
140.625
133
98
146
176.375
72.25
124.125
124.75
124.875
135.375
150
119.625
158.375
104.125
51
223.375
40
95.625
189.5
51
93.25
131.375
98.25
134.625
171
158.875
99.5
105.75
128.375
115.25
174.625
143.125
122.25
82.625
106.75
113.625
166.5
156.375
95.375
103.625
128.75
83.75
134
101.125
121.625
154.25
156.875
131.25
69
121.75
93.25
166.5
145.625
98.125
170.625
76.375
74.875
153.625
79
187.875
117
171.875
151.125
78.75
145.875
151.625
192.5
138.125
94.375
142.5
81.75
80.75
154.25
159.75
113.875
165.5
117.875
91.75
177
80.625
193.125
134
142.25
112.125
129.5
108
104
109.875
144.75
66.5
138.125
102.125
151.5
146.125
64
174.5
161.375
109.625
90
177.875
86.25
90
176.75
114.125
101.375
159
87.25
165.625
166.25
132.875
74.5
193.875
86.5
142.75
144.75
70.625
150.625
76
138.375
95.5
113.375
112.75
132.375
142.625
84
79.125
127.5
144
128.625
201.625
148.625
70.625
116.125
122.5
146.25
152.375
90
166.375
123
91
103.125
150
163.625
110.75
136.5
129.375
132.25
124.25
105
111.5
125.25
142.875
142.875
120.375
113.625
134.375
142.5
131
136.875
125.25
124.875
128.25
119.625
111.75
145.25
117.25
126.875
136.625
108
114.625
117.25
123.875
143.75
133.625
128.5
126.875
113
127.5
143.875
126.625
125.5
132.5
120
128.75
133.125
121.75
128.875
130.625
130.875
119.5
123.125
126.125
133.875
131.5
124.125
129.25
118.25
126.625
136.125
128.75
129.125
126.125
118.5
125.5
132
129.75
125
125.75
132.25
129.75
125.75
124.75
127.125
126.125
125.375
130.75
131.875
128.125
125.25
124
127.625
125.75
121
124
134.5
141.5
134.5
120.25
122
120.5
126.25
124.625
128.625
131.875
131
128.75
125
125
124.5
130.75
129.25
127.25
126.375
129.625
126.5
123.5
131.5
131.625
123.625
120
135.75
132.25
130.5
124.125
119.75
130.75
125.25
128.25
124.375
125.25
126.625
126.75
130.875
126.125
132.375
129
124.375
119
125.125
136.75
125.875
123.75
133.375
123
131
125.25
127
131.25
118.875
134.875
124.25
133.375
135.25
113
121.125
124.375
135.625
144.375
101
132.875
124.125
127.125
129.875
126
124.5
132
171.875
110.75
101.75
115.625
120.625
140.875
147.625
111.125
117.375
141.125
126.375
150.125
132.5
98.125
127.5
104
168.875
116
136.25
114.25
123.125
142.75
139.875
86
103.875
154.25
171.25
151
71
134.5
125.375
119.125
209.25
111.875
105.875
137.875
95.125
116
150.875
127.625
121.375
110.875
91.875
206
128.875
129.875
103.25
179.25
96.625
116.75
101.125
169.25
137.5
67
183.375
112.5
108.375
174.375
93.375
123.25
144
123.5
132.875
154.5
139.5
122.75
120.625
60.75
202.75
147.375
81
142.5
94
100.5
147.875
138
149.625
132.875
99.875
195
129.75
88.625
148.5
80
104
151.375
132.75
109.5
104.75
142.125
107.25
170.375
107.125
113.625
103.25
75.5
179.875
128.75
111.125
60.75
137.375
65.5
84.875
199
110.125
139.75
150.75
113.75
112.75
110.5
163.25
134.625
87
160
143.75
73.5
184.875
86.125
174.625
86.125
174.25
131.875
111.875
70
169.625
171.125
84.625
128.125
84
120.625
83.75
129.75
113
201.125
127.25
181.125
89.5
154.25
83.25
127.375
127.25
113.25
156.625
111.625
138.875
111.875
166.875
59.375
123.75
154
190.25
135.625
95.125
153.5
48.125
176.75
126.75
92.25
155.875
135.875
57.625
162.125
109.75
126.625
150.375
78.75
151.25
172.25
158.875
53.25
63.25
146
102.375
162
164.875
77.25
73.125
141.625
97.375
146.375
169.375
143.375
131.75
90
97.25
146.5
182.5
121.75
91
112.25
100
137.625
173.5
103.625
119.875
115
141.875
140.875
145.75
141
124
124.875
120
124.625
112.375
120.375
107.25
113
131.625
137.25
123.625
101
123.625
142
130.875
122.125
127
115
132.875
130.875
134.25
123.5
122.625
128.875
134
123.875
135.875
130.375
127.625
120
129.75
135
126.625
121.875
125.25
132.875
123.375
132.5
131.125
117
127.625
124
133.375
126.375
127.625
125
127.875
129.25
130
125.625
132.5
127.125
129.875
123
125.75
122
132.25
130.125
129.625
128.875
123.125
123.25
128.125
129.625
127.125
126.375
126
126.375
124
133.875
136
130.25
126.75
120
125.625
128.625
129.125
125.375
125.875
129.375
126.375
127.5
125.75
126.625
126.75
131.875
132.5
123.25
125
116.625
133.5
139.75
125.25
122
119.125
119
135
131.875
125.5
123.875
128.5
139.75
127.125
125.25
128.25
123.875
126.75
123.25
125.5
131.375
126
129.625
128.75
126
121.875
137.25
131.25
123.875
124.75
129.375
125.25
126.625
128.375
128
129.375
128.75
127.875
128.5
127
125.25
128.5
123.125
124.25
131.125
130.5
126.375
129.375
114
119.625
140.375
134.125
137.375
118
120.5
124.625
127.375
123.25
121.5
145.875
137.875
121.5
122
116
123.75
136.25
129.375
125.875
121
134.375
131
125.25
122.25
133.625
131.625
125.75
132.25
121.125
131
120.875
117.375
134.125
123.5
126.625
129
134.25
130.5
123.75
131.125
126.75
122.625
128.875
116.375
133.375
125.125
130.375
133.875
117.25
132.375
127
128.25
119.625
128.375
130
128.375
136.875
127.625
135.75
110.25
151.875
108.625
125.5
106.5
118.25
147.875
109.125
160.625
110
132.125
130
124.125
156
125.25
94.625
145.5
96
130
154.375
134.75
85
150.5
105.625
132.875
166.375
101.25
151.875
136.625
118.375
117.125
188.75
129.25
124.25
157.25
38
161.375
171.5
102.625
125.125
152.5
138.25
127.125
162.625
50
141.875
108.5
164
123.125
48
181.5
88.25
98.25
164.5
86.375
164.125
128
90.625
94
155.75
180
126.25
121
70.25
128.375
163.125
129.875
143.125
110.625
114.125
122.875
145.75
126.25
68.75
141.125
189.5
54
210.25
99.125
153.625
113
149.875
124.375
106.5
127.625
206
101.375
38
189.75
40
94.75
153.25
152.25
127.625
112.375
95.875
159.75
103.125
138.375
165.5
78.75
121.25
197.125
62.25
158
97.625
156.125
123.375
81.375
153.5
181
128.5
105.875
164
124.375
106.875
154.125
93.375
142
147.625
170.875
156.25
63.625
149.875
48.375
95.375
206.5
155.875
89.875
138.625
110.375
146.625
134.375
118.875
46.625
164.875
112.125
84.75
131.25
89.5
205.125
112.5
112
72.375
172.625
156.875
99.625
106.625
149
166.625
124.625
132.875
121.5
131.125
124.75
145.75
124.625
89.75
99.5
180.375
70.25
161
84
195.125
57.875
120.375
164
106.125
141
84.625
151.25
194
88.375
46.5
193.5
90.75
144.375
145.5
148.125
76.75
201.25
89.125
63
111.75
145
204.75
167.125
99.875
123.625
139.375
67
122.625
141.5
134.875
129.25
109.125
87
144.125
155
130.125
123.875
136.25
130.5
122.875
136.5
123
133.125
106.5
115
126.125
147.875
123
133.5
111
115.75
139.625
128.625
132.75
118
118
122.5
137.75
121.75
131.5
122.625
135.25
130.375
123.125
130.5
132.75
127
124.75
127.625
124.125
127.75
129.375
126.375
124.5
126.625
134.25
123.875
124.375
139.25
136.875
122.375
128
122
124.125
127.375
124.5
124.375
131.25
131.625
129.625
126.25
128.5
125
122
124.75
131.5
130.125
129.75
120
122.875
122
133.875
131.375
124.625
129.25
122.75
126.625
130.375
129.25
124.875
128
129.375
127.125
136.375
120
118.25
133.875
127.75
134.75
122.375
121.375
128
135.625
123.25
125.75
127
126.875
126.375
126.375
129.5
128.125
125.625
130.375
129.25
120.625
133
128.125
118.875
134.375
136.5
129.625
124.875
116.5
120
134
127.375
125.375
132.375
121
126.25
136.375
125.375
122.25
126.875
129.625
133
124.625
138.5
128.375
129.375
114.5
132
135.375
129.875
133.625
114.625
122.375
116.125
137.75
134
120.5
119
132.5
125
124.875
141.5
110.875
126.625
127.875
124
135
123.875
123.625
143.375
105
110
132.75
123
139.75
150.25
122.75
105
150.125
112
123.75
123.875
146.625
111.25
141.125
128
108.25
143.125
98.625
148.125
102.875
140.875
133.75
131.625
122.875
124
143.5
111
141.75
108
139.125
145.375
155.375
122.5
121.375
63
126.75
175.25
86.5
140.875
119.375
139.375
131.5
131.125
144.875
141.625
160.25
132.5
61
143.75
156.75
106.375
170
117.75
109
147.875
89.125
90
159.5
138
111
139.375
103.375
167
132.125
101.75
161.375
158.125
85.875
65.25
147.75
144.125
123.625
183.75
30
172.25
144
106.5
169.75
83.125
129.5
152
135.375
68.875
160.125
75.75
135
142.625
140.625
147.375
103.875
152.125
142.125
179.625
107.125
75.5
157.125
118
172.375
79
117.625
142.375
150
107.75
140.75
131.125
65.375
139.5
120.75
113.25
118.25
133.5
70.125
134.375
135.5
126.375
155.25
78.875
148.5
101.5
120.125
148.375
78.5
187
57.125
116.75
178.875
127.5
123.25
111.125
104.375
161.75
129
93.625
139
141.875
99.375
162.625
112.5
105
122.25
132.5
153.125
170
80.75
49
185
103.875
159.875
144
133.375
122.5
105.375
152
117.75
102
138.125
148.125
143.375
123.625
125.625
149
111.375
122
112
150.125
96.25
140.25
109.25
87.5
172.625
139
112.625
117.375
114.125
48
198.125
106.375
72
90
145.875
202.625
82.25
113.875
157.875
155
68.5
92
115.25
178.375
142.625
124.5
109.75
113
128.125
136.625
158.875
158.5
77
220.625
142.125
52.75
194.375
132.25
130
160.5
102.125
123.25
135.625
106.25
148.125
101.375
103.875
109.125
160.25
133.25
109.875
141.375
114.375
127.375
123.25
111.125
109.25
116
184.625
105.75
74
153
116.5
102.625
137.375
149.5
100.125
60
127.125
135.375
135.75
139.5
107.75
159.375
97.25
160
210.125
51
125.375
67.75
131.625
191
83
73.75
153.375
181
116.5
188
114.625
79.875
160.25
104.375
84.375
88
145.125
103.25
141.375
110.625
90.75
162.5
119
164
168.5
124.125
104.5
116.25
134.125
133.75
136.5
164
50
139.875
116.5
126.125
155
126.125
138
57.875
120.625
164.375
126
113.5
118.5
61.875
143.125
143.25
138.125
142.5
145.75
127.125
156.25
137.875
105.375
104
83.625
135.625
142.375
140.625
130.125
92.125
101.75
134.25
131.625
172.75
95
128
130.625
119.75
126.25
135.25
155.25
124.375
126.75
122.75
95.75
125.125
148.125
111.375
112.375
108
119.125
146.875
116.25
132.375
128
122.875
137.5
138.625
121.5
111.875
131.75
131.625
123.75
120
139.625
124.375
123.375
131.25
136.125
118.625
126.625
141.5
127.375
116
134.25
124.75
127
125.25
123.375
123.375
133.375
134.125
129.625
122.75
123
126.875
129.625
127.625
128.25
132.875
116.5
118.375
154.125
127.375
127.125
119.5
121
129
126.375
131.125
126.875
127
125.375
125.75
126.125
126.625
144.875
135.5
118.125
121.5
125
127.875
124
129
127.25
125.875
125.875
126.75
129.625
132.75
126.375
139.375
118
124.375
125
123.5
128
128.75
127
123.75
129.25
130
134.125
127.5
123.375
124.75
125.75
127
129.5
124.625
124.625
126.125
131.5
129
127.125
126.375
125.5
125.75
116.375
121
150.625
139.75
130.25
119
110.25
125.875
130
123
126.125
129.5
132.875
135.125
124
122.875
123
125.625
128.25
131.375
134.75
131.375
124.125
122
128.125
128.25
121.75
125.75
128.375
126.75
137.625
127.25
124.25
124
123.25
125.625
126.5
134.125
125.75
126.75
127.5
125.5
134.5
126.375
126.25
126
120.375
129.25
129.375
126.625
135.5
125.375
132.5
122
120.375
129.25
130
137
130.375
126.75
122.125
119
129.125
129.75
132
132
123.125
129.75
123.625
124.625
119
131.875
134.25
126.75
125.75
122.125
130.25
115.25
134.125
133.25
129.125
113
131
124.125
133.875
150.625
114.125
111
127.25
135.75
132.75
150.125
84.625
130.75
147.125
121.25
130.25
142.875
138.875
122.875
131.625
85.375
119.75
131.5
116.125
148.125
123.375
113
125.625
128.875
117.75
157.375
128.5
135.25
99.5
123.75
147
152.5
116.625
80
164.25
141.75
177.125
107
128.875
147.75
138.375
140.25
101.5
99.375
143.75
170.625
133
170.875
69.125
131.625
144.5
147.5
127.375
145.75
129.625
46
134.5
160.5
147.125
128.875
158.625
70
156.5
144.25
127.25
201.25
94.5
85
136.875
144
103.375
178.125
102
50
185.625
79.75
149.875
172.875
81.75
88.25
91
143.25
171.5
128.875
116.75
124.5
115.25
93
184
134.625
89.125
212.75
46
90.375
185.25
148.75
108.125
156.5
46
135.5
123.125
123.875
127.125
110.75
198.875
143.625
60
109.625
106.75
191.75
128.75
70.625
147.25
87.375
183.125
146.375
53.75
172.375
158.375
180.375
109.5
62.875
142.75
149
114.5
104.125
57
156.75
184.75
158.25
59.5
133.75
109
153.625
148
146.125
164.125
103.75
107.125
91.5
128.75
125.75
100.125
99.5
152.75
75.5
145.375
167.5
72
135.25
173.5
122
106.375
145.25
165.25
109.75
100.875
81.625
150.375
130
111.5
183.375
119.75
134.25
168
122.75
104.625
89.125
167.125
134.75
130.5
115.25
104.5
110.125
90.875
125.5
157.625
110.625
153.375
112.25
85.375
79.625
139.625
128.625
131.5
66.125
171
176.625
115.75
141.5
102.25
104.25
162.125
142.625
113.875
121.125
197.75
73
88.375
180.875
114.625
182.75
144.875
70.375
161.375
88.25
49
65
152
152.5
115.375
94
60
128.875
154.375
135
67.625
151.75
107.25
140.125
117.5
133.75
180.125
117
138.25
101.5
172.375
95.375
138.625
118.125
71
138.875
154.625
122.5
97.125
148
144.625
105.5
130.625
147.625
133.625
66
145
142.375
123.25
71.75
149.375
171.125
70.375
152.125
117.875
109.375
124.875
146.5
151.25
73
113
183.25
102.25
102.875
100.875
126
149.375
128.875
170.625
153.5
144.25
108.375
135.625
113.625
65.375
203.25
94.375
78.125
122.75
93.75
143.875
132
158.125
125.25
161.125
94.5
160.5
95.5
131.375
119
108.625
157.5
77.875
141.375
106.875
129.5
164.875
151.375
87.25
136.625
147
136.125
129.125
97.25
164.75
122.25
102.625
125.875
100.375
188
157.625
82.75
89
123.25
165.375
101.875
131.375
115.125
123.375
167.625
104.875
147.375
146.5
121.125
69
162.75
111.875
141.5
153.125
115.625
111
131.125
128.125
121.125
137
145.625
143.75
105.375
118.75
154.5
131.375
122.125
132.75
126.875
131.125
129.625
111
118.875
136.125
123.75
131.125
128.375
119.625
119.25
118
130
135.875
131.625
123
111
132.125
130.75
134.375
126.625
124.375
128
125.75
136.5
130.5
128.25
123.875
121.875
127.625
127.25
130.875
131
125.5
119
127.125
135.625
126.25
123
136.375
128.25
126
127.75
122.875
126.375
125.625
124.125
124.125
144.75
130.125
129.5
121.5
121.625
126.5
128.625
128.625
126.125
124.5
122.375
135.5
129.375
131.375
128.25
124.25
120
126.125
129
129.375
125.875
126.5
126.625
126.625
132.75
129.125
128.125
132.375
122.125
124.25
122.75
131.875
132.875
127.125
126.5
124.25
128.5
125
129
125.375
129.625
132.875
132
125.5
118.25
127.25
128.375
127.75
124.375
126.125
130.75
126.875
127
129.375
129.875
125.625
125.5
124.75
126.125
127.5
127.25
124.25
134.125
135.625
125
119
124
122.125
135.375
125.875
127.375
126.125
122.375
125
122.875
127.375
134.375
131.5
123
124.125
127.375
132.875
128.125
125.625
130.5
124.375
128.75
125.125
123.125
129.375
124.25
129.125
120.125
137.5
129.5
129
133.25
131.375
121.375
125
119
126.75
142.75
129.125
127.625
110
116.5
128.875
131.75
130
132.25
133.5
125.375
130.125
126
126.5
123
135.75
132.875
119.75
132
119.25
129.75
115.75
122.125
123.375
117.5
163
118.625
131.25
112.375
133.75
131.875
147.875
111.5
134.625
125.625
128.125
110.25
126.75
98.25
130.625
142.625
123.25
119.375
158.375
111.75
124.375
130.625
117.875
161
126.125
130.375
160.375
105.875
111
151.75
125.25
116.25
153.875
111.875
129.5
123.5
92.375
127.75
128.625
164.125
134.875
169.25
66.625
155.5
113.625
161.375
150.125
135.875
113
74.875
167.5
112
133.875
125.125
110.75
146.5
180.625
80.75
101.5
140
155.625
158.125
115.5
85.25
114.375
167.25
111
96.125
71.125
205.875
116.5
148.5
112.875
70.375
85.5
181.875
101.25
109.875
139.125
122.125
148.75
126.625
101.25
130.75
122.625
140.875
148.5
160.625
135.125
67
178.875
179.375
117.625
72.375
123.125
80.375
169.875
153.25
103.25
64
176.25
129.125
189.875
76
130.75
130.375
132.875
174.625
83.125
139.25
88.75
104.125
174
71
194.5
105.25
126.375
131
52
204.625
128
98.5
55
198.875
98.625
103
155.25
88
154.375
114.5
100.375
137.125
134.375
186.375
128.875
97.125
95.875
157.5
135.625
93.75
140.875
45
187.5
127.625
111.125
148.875
70
127.125
140.75
167.875
61.75
205.25
65.625
74.25
139.125
117.875
169.25
170.5
164.5
100.25
93.5
125.375
171.25
119.875
124.25
76.75
154.375
135.75
114
127.375
102.5
118.75
149.25
184.125
86.375
138.25
126.5
94
143.25
122.625
121.75
119.75
151.5
107.625
89.875
151.25
182.875
116.75
102.5
181.625
61.25
97
150.125
98.375
168.375
88.875
97
199.625
107.125
108.875
154.25
77.625
154.5
152.5
87
118.75
111.5
105.25
99.75
123.125
123.875
137.5
151.875
144.75
135.125
125.125
118.5
141.125
152.75
117.375
120.875
83.375
102.625
163.875
150.25
138.375
80
106.375
179.25
169.5
101.625
137.875
109.125
113.75
153.875
73
107
137.375
78.625
135.125
111.625
193.625
107.125
83.375
122
79.75
127.25
156
174.5
58
130.25
97.25
125.75
175.875
66
172.125
165.625
45
224.375
136.75
80
147
79.375
159
112.75
144.875
144.75
85
128.5
129.25
157.25
137.5
140
126.375
106.125
100.5
135.375
172.25
145.25
79.125
165.25
85.625
119.25
141
154
93
114.625
166.75
182
134.625
137.375
161.25
82.25
95.875
133.625
105.25
143.75
167.875
97.625
152.375
65.25
106.25
170.5
110.125
47
109.625
100.875
144.875
168.125
154.375
52
134.5
163.125
98.375
89.125
136.125
111.375
77.25
157
110.75
116.625
138.25
128.375
112.375
102
135.375
187.625
84.375
46
142.5
165
113.875
88.125
92.625
175.375
111.25
151.5
144.375
71.625
103.75
187.375
135
49
191.125
151.25
90.75
125.875
101.375
168.875
136.875
57
144.375
113
154.5
139.125
130
41.875
213.125
134.25
88.125
162.375
48
154.625
118
128.875
106.125
184.875
174
93
154
97.5
169.75
152.375
101.5
96.25
108.25
94
153.875
93.625
148.25
118
123.125
152.375
107.125
188.625
79.125
126.25
69
174.25
60
142.125
135
98.125
145
129.375
139.75
89
89.125
208.25
63.125
132.625
163.375
94.75
88.375
128.5
212.25
79.125
135.125
106.5
89
128.625
52.875
96.5
167.75
111.75
112.125
149.75
134.375
112.875
141.75
101.5
158.5
98.875
110.25
103.125
86
137.875
150.125
129.125
131.625
100
106.125
148.625
125.5
118.75
149.375
147.125
152.25
68.25
167
148.125
48.5
170.75
143.75
123.25
107.25
128.75
118.75
215
74.5
123.375
175.5
35
139.375
160.625
121.625
112.5
87.625
110.625
154.75
182.25
129.5
109.625
115.5
174.625
146.125
105.375
145
93.875
167
152.5
136.375
79
94.375
159.625
150.5
135.625
94.125
56
109.75
70.25
151.125
155.125
91.75
69.125
152.625
154
144.25
115.875
140.5
122
162.75
151.75
121.375
117.625
58
134.875
145.625
81
84.875
144.75
144.375
156.375
121.625
57
132.375
133.25
156.625
121.5
164
89.25
68
150.875
110.5
135
163.625
130
104.5
115.125
43
117.625
153
184.125
153.125
114.25
78.375
129.625
153
151.5
107.75
132.75
144.625
119.75
104.625
112.75
115.125
154.5
115.875
107.25
117.625
118.625
154.875
141.875
101.875
105.625
138.75
140.875
149.25
120.875
113
107.75
127.75
131.75
131.125
135.5
132.875
120.125
129.5
149.5
129.75
125.25
116
111.375
135.625
126.5
137.875
120
129.5
124
123.625
134.625
112.25
136.125
121.75
125.5
125.875
127.5
124
132.375
141.875
126.625
118.75
124.25
124.375
139.375
123.5
127.375
127.125